# Układ: x' = x(y-1),  y' = 3x - 2y + x^2 - 2y^2
# IC: x0=1.1, y0=0.9, dt=1.000e-03, nsteps=3000
# t	x(t)	y(t)
0.00000000e+00	1.100000000000e+00	9.000000000000e-01
1.00000000e-03	1.099890603718e+00	9.010866684844e-01
2.00000000e-03	1.099782409761e+00	9.021666998181e-01
3.00000000e-03	1.099675410498e+00	9.032401326930e-01
4.00000000e-03	1.099569598348e+00	9.043070056295e-01
5.00000000e-03	1.099464965780e+00	9.053673569764e-01
6.00000000e-03	1.099361505311e+00	9.064212249111e-01
7.00000000e-03	1.099259209504e+00	9.074686474396e-01
8.00000000e-03	1.099158070973e+00	9.085096623964e-01
9.00000000e-03	1.099058082379e+00	9.095443074451e-01
1.00000000e-02	1.098959236431e+00	9.105726200779e-01
1.10000000e-02	1.098861525882e+00	9.115946376163e-01
1.20000000e-02	1.098764943536e+00	9.126103972106e-01
1.30000000e-02	1.098669482242e+00	9.136199358407e-01
1.40000000e-02	1.098575134895e+00	9.146232903158e-01
1.50000000e-02	1.098481894436e+00	9.156204972746e-01
1.60000000e-02	1.098389753853e+00	9.166115931858e-01
1.70000000e-02	1.098298706178e+00	9.175966143479e-01
1.80000000e-02	1.098208744489e+00	9.185755968894e-01
1.90000000e-02	1.098119861910e+00	9.195485767694e-01
2.00000000e-02	1.098032051608e+00	9.205155897775e-01
2.10000000e-02	1.097945306795e+00	9.214766715338e-01
2.20000000e-02	1.097859620728e+00	9.224318574898e-01
2.30000000e-02	1.097774986706e+00	9.233811829278e-01
2.40000000e-02	1.097691398074e+00	9.243246829618e-01
2.50000000e-02	1.097608848220e+00	9.252623925376e-01
2.60000000e-02	1.097527330573e+00	9.261943464328e-01
2.70000000e-02	1.097446838608e+00	9.271205792573e-01
2.80000000e-02	1.097367365839e+00	9.280411254535e-01
2.90000000e-02	1.097288905826e+00	9.289560192968e-01
3.00000000e-02	1.097211452169e+00	9.298652948955e-01
3.10000000e-02	1.097134998511e+00	9.307689861914e-01
3.20000000e-02	1.097059538534e+00	9.316671269599e-01
3.30000000e-02	1.096985065966e+00	9.325597508106e-01
3.40000000e-02	1.096911574571e+00	9.334468911874e-01
3.50000000e-02	1.096839058157e+00	9.343285813688e-01
3.60000000e-02	1.096767510573e+00	9.352048544684e-01
3.70000000e-02	1.096696925706e+00	9.360757434352e-01
3.80000000e-02	1.096627297484e+00	9.369412810537e-01
3.90000000e-02	1.096558619877e+00	9.378014999448e-01
4.00000000e-02	1.096490886891e+00	9.386564325655e-01
4.10000000e-02	1.096424092574e+00	9.395061112098e-01
4.20000000e-02	1.096358231012e+00	9.403505680089e-01
4.30000000e-02	1.096293296331e+00	9.411898349314e-01
4.40000000e-02	1.096229282694e+00	9.420239437841e-01
4.50000000e-02	1.096166184303e+00	9.428529262117e-01
4.60000000e-02	1.096103995400e+00	9.436768136981e-01
4.70000000e-02	1.096042710263e+00	9.444956375661e-01
4.80000000e-02	1.095982323208e+00	9.453094289781e-01
4.90000000e-02	1.095922828589e+00	9.461182189364e-01
5.00000000e-02	1.095864220797e+00	9.469220382839e-01
5.10000000e-02	1.095806494260e+00	9.477209177040e-01
5.20000000e-02	1.095749643442e+00	9.485148877214e-01
5.30000000e-02	1.095693662846e+00	9.493039787028e-01
5.40000000e-02	1.095638547009e+00	9.500882208566e-01
5.50000000e-02	1.095584290505e+00	9.508676442340e-01
5.60000000e-02	1.095530887944e+00	9.516422787291e-01
5.70000000e-02	1.095478333972e+00	9.524121540795e-01
5.80000000e-02	1.095426623269e+00	9.531772998666e-01
5.90000000e-02	1.095375750552e+00	9.539377455164e-01
6.00000000e-02	1.095325710572e+00	9.546935202994e-01
6.10000000e-02	1.095276498115e+00	9.554446533319e-01
6.20000000e-02	1.095228108003e+00	9.561911735754e-01
6.30000000e-02	1.095180535090e+00	9.569331098381e-01
6.40000000e-02	1.095133774266e+00	9.576704907748e-01
6.50000000e-02	1.095087820453e+00	9.584033448873e-01
6.60000000e-02	1.095042668609e+00	9.591317005255e-01
6.70000000e-02	1.094998313725e+00	9.598555858873e-01
6.80000000e-02	1.094954750825e+00	9.605750290191e-01
6.90000000e-02	1.094911974965e+00	9.612900578168e-01
7.00000000e-02	1.094869981235e+00	9.620007000259e-01
7.10000000e-02	1.094828764759e+00	9.627069832420e-01
7.20000000e-02	1.094788320691e+00	9.634089349114e-01
7.30000000e-02	1.094748644218e+00	9.641065823317e-01
7.40000000e-02	1.094709730562e+00	9.647999526521e-01
7.50000000e-02	1.094671574972e+00	9.654890728742e-01
7.60000000e-02	1.094634172733e+00	9.661739698521e-01
7.70000000e-02	1.094597519159e+00	9.668546702934e-01
7.80000000e-02	1.094561609595e+00	9.675312007594e-01
7.90000000e-02	1.094526439421e+00	9.682035876656e-01
8.00000000e-02	1.094492004042e+00	9.688718572824e-01
8.10000000e-02	1.094458298899e+00	9.695360357357e-01
8.20000000e-02	1.094425319460e+00	9.701961490072e-01
8.30000000e-02	1.094393061225e+00	9.708522229348e-01
8.40000000e-02	1.094361519725e+00	9.715042832138e-01
8.50000000e-02	1.094330690518e+00	9.721523553966e-01
8.60000000e-02	1.094300569195e+00	9.727964648939e-01
8.70000000e-02	1.094271151375e+00	9.734366369748e-01
8.80000000e-02	1.094242432706e+00	9.740728967676e-01
8.90000000e-02	1.094214408866e+00	9.747052692602e-01
9.00000000e-02	1.094187075562e+00	9.753337793006e-01
9.10000000e-02	1.094160428530e+00	9.759584515979e-01
9.20000000e-02	1.094134463533e+00	9.765793107222e-01
9.30000000e-02	1.094109176365e+00	9.771963811053e-01
9.40000000e-02	1.094084562848e+00	9.778096870418e-01
9.50000000e-02	1.094060618829e+00	9.784192526889e-01
9.60000000e-02	1.094037340186e+00	9.790251020675e-01
9.70000000e-02	1.094014722825e+00	9.796272590623e-01
9.80000000e-02	1.093992762678e+00	9.802257474229e-01
9.90000000e-02	1.093971455705e+00	9.808205907637e-01
1.00000000e-01	1.093950797893e+00	9.814118125652e-01
1.01000000e-01	1.093930785256e+00	9.819994361738e-01
1.02000000e-01	1.093911413836e+00	9.825834848030e-01
1.03000000e-01	1.093892679700e+00	9.831639815334e-01
1.04000000e-01	1.093874578943e+00	9.837409493137e-01
1.05000000e-01	1.093857107687e+00	9.843144109611e-01
1.06000000e-01	1.093840262077e+00	9.848843891619e-01
1.07000000e-01	1.093824038288e+00	9.854509064717e-01
1.08000000e-01	1.093808432518e+00	9.860139853166e-01
1.09000000e-01	1.093793440992e+00	9.865736479934e-01
1.10000000e-01	1.093779059961e+00	9.871299166700e-01
1.11000000e-01	1.093765285700e+00	9.876828133863e-01
1.12000000e-01	1.093752114510e+00	9.882323600545e-01
1.13000000e-01	1.093739542717e+00	9.887785784599e-01
1.14000000e-01	1.093727566673e+00	9.893214902613e-01
1.15000000e-01	1.093716182752e+00	9.898611169914e-01
1.16000000e-01	1.093705387356e+00	9.903974800579e-01
1.17000000e-01	1.093695176909e+00	9.909306007435e-01
1.18000000e-01	1.093685547860e+00	9.914605002066e-01
1.19000000e-01	1.093676496683e+00	9.919871994822e-01
1.20000000e-01	1.093668019873e+00	9.925107194820e-01
1.21000000e-01	1.093660113954e+00	9.930310809951e-01
1.22000000e-01	1.093652775468e+00	9.935483046889e-01
1.23000000e-01	1.093646000985e+00	9.940624111092e-01
1.24000000e-01	1.093639787095e+00	9.945734206809e-01
1.25000000e-01	1.093634130414e+00	9.950813537086e-01
1.26000000e-01	1.093629027579e+00	9.955862303773e-01
1.27000000e-01	1.093624475252e+00	9.960880707528e-01
1.28000000e-01	1.093620470114e+00	9.965868947821e-01
1.29000000e-01	1.093617008874e+00	9.970827222943e-01
1.30000000e-01	1.093614088259e+00	9.975755730010e-01
1.31000000e-01	1.093611705019e+00	9.980654664966e-01
1.32000000e-01	1.093609855930e+00	9.985524222595e-01
1.33000000e-01	1.093608537784e+00	9.990364596520e-01
1.34000000e-01	1.093607747400e+00	9.995175979211e-01
1.35000000e-01	1.093607481617e+00	9.999958561992e-01
1.36000000e-01	1.093607737294e+00	1.000471253504e+00
1.37000000e-01	1.093608511314e+00	1.000943808741e+00
1.38000000e-01	1.093609800580e+00	1.001413540701e+00
1.39000000e-01	1.093611602016e+00	1.001880468064e+00
1.40000000e-01	1.093613912569e+00	1.002344609395e+00
1.41000000e-01	1.093616729204e+00	1.002805983150e+00
1.42000000e-01	1.093620048908e+00	1.003264607675e+00
1.43000000e-01	1.093623868690e+00	1.003720501203e+00
1.44000000e-01	1.093628185579e+00	1.004173681860e+00
1.45000000e-01	1.093632996622e+00	1.004624167660e+00
1.46000000e-01	1.093638298890e+00	1.005071976509e+00
1.47000000e-01	1.093644089471e+00	1.005517126208e+00
1.48000000e-01	1.093650365475e+00	1.005959634445e+00
1.49000000e-01	1.093657124030e+00	1.006399518805e+00
1.50000000e-01	1.093664362286e+00	1.006836796766e+00
1.51000000e-01	1.093672077411e+00	1.007271485698e+00
1.52000000e-01	1.093680266594e+00	1.007703602868e+00
1.53000000e-01	1.093688927041e+00	1.008133165435e+00
1.54000000e-01	1.093698055978e+00	1.008560190458e+00
1.55000000e-01	1.093707650653e+00	1.008984694887e+00
1.56000000e-01	1.093717708329e+00	1.009406695573e+00
1.57000000e-01	1.093728226290e+00	1.009826209263e+00
1.58000000e-01	1.093739201838e+00	1.010243252599e+00
1.59000000e-01	1.093750632294e+00	1.010657842126e+00
1.60000000e-01	1.093762514997e+00	1.011069994284e+00
1.61000000e-01	1.093774847305e+00	1.011479725414e+00
1.62000000e-01	1.093787626595e+00	1.011887051757e+00
1.63000000e-01	1.093800850260e+00	1.012291989453e+00
1.64000000e-01	1.093814515713e+00	1.012694554544e+00
1.65000000e-01	1.093828620383e+00	1.013094762973e+00
1.66000000e-01	1.093843161718e+00	1.013492630586e+00
1.67000000e-01	1.093858137184e+00	1.013888173130e+00
1.68000000e-01	1.093873544264e+00	1.014281406255e+00
1.69000000e-01	1.093889380459e+00	1.014672345517e+00
1.70000000e-01	1.093905643286e+00	1.015061006371e+00
1.71000000e-01	1.093922330280e+00	1.015447404182e+00
1.72000000e-01	1.093939438993e+00	1.015831554216e+00
1.73000000e-01	1.093956966995e+00	1.016213471647e+00
1.74000000e-01	1.093974911872e+00	1.016593171554e+00
1.75000000e-01	1.093993271226e+00	1.016970668922e+00
1.76000000e-01	1.094012042676e+00	1.017345978643e+00
1.77000000e-01	1.094031223860e+00	1.017719115519e+00
1.78000000e-01	1.094050812428e+00	1.018090094257e+00
1.79000000e-01	1.094070806050e+00	1.018458929474e+00
1.80000000e-01	1.094091202410e+00	1.018825635696e+00
1.81000000e-01	1.094111999211e+00	1.019190227357e+00
1.82000000e-01	1.094133194168e+00	1.019552718804e+00
1.83000000e-01	1.094154785015e+00	1.019913124291e+00
1.84000000e-01	1.094176769501e+00	1.020271457987e+00
1.85000000e-01	1.094199145389e+00	1.020627733968e+00
1.86000000e-01	1.094221910461e+00	1.020981966226e+00
1.87000000e-01	1.094245062512e+00	1.021334168663e+00
1.88000000e-01	1.094268599352e+00	1.021684355095e+00
1.89000000e-01	1.094292518807e+00	1.022032539250e+00
1.90000000e-01	1.094316818720e+00	1.022378734772e+00
1.91000000e-01	1.094341496947e+00	1.022722955218e+00
1.92000000e-01	1.094366551359e+00	1.023065214061e+00
1.93000000e-01	1.094391979842e+00	1.023405524687e+00
1.94000000e-01	1.094417780299e+00	1.023743900401e+00
1.95000000e-01	1.094443950644e+00	1.024080354421e+00
1.96000000e-01	1.094470488808e+00	1.024414899885e+00
1.97000000e-01	1.094497392736e+00	1.024747549846e+00
1.98000000e-01	1.094524660388e+00	1.025078317274e+00
1.99000000e-01	1.094552289736e+00	1.025407215060e+00
2.00000000e-01	1.094580278770e+00	1.025734256011e+00
2.01000000e-01	1.094608625491e+00	1.026059452855e+00
2.02000000e-01	1.094637327915e+00	1.026382818238e+00
2.03000000e-01	1.094666384072e+00	1.026704364726e+00
2.04000000e-01	1.094695792006e+00	1.027024104807e+00
2.05000000e-01	1.094725549774e+00	1.027342050888e+00
2.06000000e-01	1.094755655449e+00	1.027658215299e+00
2.07000000e-01	1.094786107113e+00	1.027972610291e+00
2.08000000e-01	1.094816902867e+00	1.028285248036e+00
2.09000000e-01	1.094848040821e+00	1.028596140631e+00
2.10000000e-01	1.094879519101e+00	1.028905300095e+00
2.11000000e-01	1.094911335845e+00	1.029212738370e+00
2.12000000e-01	1.094943489204e+00	1.029518467323e+00
2.13000000e-01	1.094975977343e+00	1.029822498745e+00
2.14000000e-01	1.095008798438e+00	1.030124844351e+00
2.15000000e-01	1.095041950681e+00	1.030425515783e+00
2.16000000e-01	1.095075432274e+00	1.030724524609e+00
2.17000000e-01	1.095109241432e+00	1.031021882320e+00
2.18000000e-01	1.095143376385e+00	1.031317600336e+00
2.19000000e-01	1.095177835373e+00	1.031611690005e+00
2.20000000e-01	1.095212616649e+00	1.031904162601e+00
2.21000000e-01	1.095247718480e+00	1.032195029325e+00
2.22000000e-01	1.095283139142e+00	1.032484301308e+00
2.23000000e-01	1.095318876927e+00	1.032771989609e+00
2.24000000e-01	1.095354930136e+00	1.033058105216e+00
2.25000000e-01	1.095391297084e+00	1.033342659048e+00
2.26000000e-01	1.095427976097e+00	1.033625661950e+00
2.27000000e-01	1.095464965514e+00	1.033907124703e+00
2.28000000e-01	1.095502263684e+00	1.034187058014e+00
2.29000000e-01	1.095539868969e+00	1.034465472524e+00
2.30000000e-01	1.095577779742e+00	1.034742378804e+00
2.31000000e-01	1.095615994389e+00	1.035017787358e+00
2.32000000e-01	1.095654511305e+00	1.035291708622e+00
2.33000000e-01	1.095693328899e+00	1.035564152965e+00
2.34000000e-01	1.095732445590e+00	1.035835130689e+00
2.35000000e-01	1.095771859809e+00	1.036104652029e+00
2.36000000e-01	1.095811569996e+00	1.036372727156e+00
2.37000000e-01	1.095851574605e+00	1.036639366173e+00
2.38000000e-01	1.095891872100e+00	1.036904579120e+00
2.39000000e-01	1.095932460955e+00	1.037168375969e+00
2.40000000e-01	1.095973339657e+00	1.037430766632e+00
2.41000000e-01	1.096014506701e+00	1.037691760952e+00
2.42000000e-01	1.096055960595e+00	1.037951368713e+00
2.43000000e-01	1.096097699856e+00	1.038209599632e+00
2.44000000e-01	1.096139723014e+00	1.038466463366e+00
2.45000000e-01	1.096182028608e+00	1.038721969507e+00
2.46000000e-01	1.096224615187e+00	1.038976127586e+00
2.47000000e-01	1.096267481311e+00	1.039228947073e+00
2.48000000e-01	1.096310625550e+00	1.039480437375e+00
2.49000000e-01	1.096354046485e+00	1.039730607839e+00
2.50000000e-01	1.096397742707e+00	1.039979467750e+00
2.51000000e-01	1.096441712817e+00	1.040227026336e+00
2.52000000e-01	1.096485955425e+00	1.040473292761e+00
2.53000000e-01	1.096530469153e+00	1.040718276132e+00
2.54000000e-01	1.096575252631e+00	1.040961985496e+00
2.55000000e-01	1.096620304501e+00	1.041204429841e+00
2.56000000e-01	1.096665623412e+00	1.041445618096e+00
2.57000000e-01	1.096711208025e+00	1.041685559134e+00
2.58000000e-01	1.096757057010e+00	1.041924261767e+00
2.59000000e-01	1.096803169046e+00	1.042161734753e+00
2.60000000e-01	1.096849542823e+00	1.042397986790e+00
2.61000000e-01	1.096896177039e+00	1.042633026522e+00
2.62000000e-01	1.096943070402e+00	1.042866862534e+00
2.63000000e-01	1.096990221629e+00	1.043099503356e+00
2.64000000e-01	1.097037629446e+00	1.043330957463e+00
2.65000000e-01	1.097085292590e+00	1.043561233273e+00
2.66000000e-01	1.097133209806e+00	1.043790339152e+00
2.67000000e-01	1.097181379847e+00	1.044018283408e+00
2.68000000e-01	1.097229801477e+00	1.044245074296e+00
2.69000000e-01	1.097278473468e+00	1.044470720018e+00
2.70000000e-01	1.097327394600e+00	1.044695228721e+00
2.71000000e-01	1.097376563664e+00	1.044918608498e+00
2.72000000e-01	1.097425979457e+00	1.045140867392e+00
2.73000000e-01	1.097475640789e+00	1.045362013390e+00
2.74000000e-01	1.097525546474e+00	1.045582054428e+00
2.75000000e-01	1.097575695337e+00	1.045800998390e+00
2.76000000e-01	1.097626086211e+00	1.046018853109e+00
2.77000000e-01	1.097676717939e+00	1.046235626366e+00
2.78000000e-01	1.097727589371e+00	1.046451325890e+00
2.79000000e-01	1.097778699364e+00	1.046665959361e+00
2.80000000e-01	1.097830046787e+00	1.046879534407e+00
2.81000000e-01	1.097881630514e+00	1.047092058607e+00
2.82000000e-01	1.097933449428e+00	1.047303539490e+00
2.83000000e-01	1.097985502422e+00	1.047513984534e+00
2.84000000e-01	1.098037788395e+00	1.047723401171e+00
2.85000000e-01	1.098090306255e+00	1.047931796780e+00
2.86000000e-01	1.098143054918e+00	1.048139178696e+00
2.87000000e-01	1.098196033307e+00	1.048345554201e+00
2.88000000e-01	1.098249240355e+00	1.048550930534e+00
2.89000000e-01	1.098302675000e+00	1.048755314882e+00
2.90000000e-01	1.098356336191e+00	1.048958714387e+00
2.91000000e-01	1.098410222881e+00	1.049161136143e+00
2.92000000e-01	1.098464334035e+00	1.049362587198e+00
2.93000000e-01	1.098518668622e+00	1.049563074553e+00
2.94000000e-01	1.098573225621e+00	1.049762605163e+00
2.95000000e-01	1.098628004017e+00	1.049961185937e+00
2.96000000e-01	1.098683002803e+00	1.050158823738e+00
2.97000000e-01	1.098738220979e+00	1.050355525385e+00
2.98000000e-01	1.098793657554e+00	1.050551297650e+00
2.99000000e-01	1.098849311543e+00	1.050746147263e+00
3.00000000e-01	1.098905181967e+00	1.050940080906e+00
3.01000000e-01	1.098961267858e+00	1.051133105220e+00
3.02000000e-01	1.099017568252e+00	1.051325226801e+00
3.03000000e-01	1.099074082193e+00	1.051516452200e+00
3.04000000e-01	1.099130808732e+00	1.051706787927e+00
3.05000000e-01	1.099187746927e+00	1.051896240447e+00
3.06000000e-01	1.099244895844e+00	1.052084816184e+00
3.07000000e-01	1.099302254556e+00	1.052272521517e+00
3.08000000e-01	1.099359822140e+00	1.052459362786e+00
3.09000000e-01	1.099417597684e+00	1.052645346287e+00
3.10000000e-01	1.099475580279e+00	1.052830478273e+00
3.11000000e-01	1.099533769026e+00	1.053014764959e+00
3.12000000e-01	1.099592163031e+00	1.053198212516e+00
3.13000000e-01	1.099650761407e+00	1.053380827074e+00
3.14000000e-01	1.099709563273e+00	1.053562614726e+00
3.15000000e-01	1.099768567756e+00	1.053743581520e+00
3.16000000e-01	1.099827773988e+00	1.053923733466e+00
3.17000000e-01	1.099887181109e+00	1.054103076534e+00
3.18000000e-01	1.099946788265e+00	1.054281616655e+00
3.19000000e-01	1.100006594608e+00	1.054459359719e+00
3.20000000e-01	1.100066599295e+00	1.054636311579e+00
3.21000000e-01	1.100126801493e+00	1.054812478047e+00
3.22000000e-01	1.100187200373e+00	1.054987864898e+00
3.23000000e-01	1.100247795110e+00	1.055162477867e+00
3.24000000e-01	1.100308584891e+00	1.055336322652e+00
3.25000000e-01	1.100369568903e+00	1.055509404914e+00
3.26000000e-01	1.100430746344e+00	1.055681730275e+00
3.27000000e-01	1.100492116414e+00	1.055853304319e+00
3.28000000e-01	1.100553678323e+00	1.056024132595e+00
3.29000000e-01	1.100615431284e+00	1.056194220613e+00
3.30000000e-01	1.100677374517e+00	1.056363573847e+00
3.31000000e-01	1.100739507248e+00	1.056532197736e+00
3.32000000e-01	1.100801828708e+00	1.056700097680e+00
3.33000000e-01	1.100864338137e+00	1.056867279046e+00
3.34000000e-01	1.100927034776e+00	1.057033747164e+00
3.35000000e-01	1.100989917876e+00	1.057199507326e+00
3.36000000e-01	1.101052986691e+00	1.057364564794e+00
3.37000000e-01	1.101116240481e+00	1.057528924790e+00
3.38000000e-01	1.101179678514e+00	1.057692592505e+00
3.39000000e-01	1.101243300060e+00	1.057855573092e+00
3.40000000e-01	1.101307104398e+00	1.058017871672e+00
3.41000000e-01	1.101371090811e+00	1.058179493330e+00
3.42000000e-01	1.101435258586e+00	1.058340443120e+00
3.43000000e-01	1.101499607018e+00	1.058500726060e+00
3.44000000e-01	1.101564135407e+00	1.058660347135e+00
3.45000000e-01	1.101628843057e+00	1.058819311296e+00
3.46000000e-01	1.101693729278e+00	1.058977623462e+00
3.47000000e-01	1.101758793385e+00	1.059135288519e+00
3.48000000e-01	1.101824034700e+00	1.059292311320e+00
3.49000000e-01	1.101889452549e+00	1.059448696687e+00
3.50000000e-01	1.101955046262e+00	1.059604449407e+00
3.51000000e-01	1.102020815176e+00	1.059759574238e+00
3.52000000e-01	1.102086758633e+00	1.059914075905e+00
3.53000000e-01	1.102152875979e+00	1.060067959100e+00
3.54000000e-01	1.102219166565e+00	1.060221228485e+00
3.55000000e-01	1.102285629750e+00	1.060373888692e+00
3.56000000e-01	1.102352264893e+00	1.060525944321e+00
3.57000000e-01	1.102419071363e+00	1.060677399940e+00
3.58000000e-01	1.102486048530e+00	1.060828260088e+00
3.59000000e-01	1.102553195772e+00	1.060978529273e+00
3.60000000e-01	1.102620512470e+00	1.061128211974e+00
3.61000000e-01	1.102687998009e+00	1.061277312638e+00
3.62000000e-01	1.102755651782e+00	1.061425835684e+00
3.63000000e-01	1.102823473183e+00	1.061573785500e+00
3.64000000e-01	1.102891461615e+00	1.061721166447e+00
3.65000000e-01	1.102959616481e+00	1.061867982854e+00
3.66000000e-01	1.103027937192e+00	1.062014239023e+00
3.67000000e-01	1.103096423163e+00	1.062159939225e+00
3.68000000e-01	1.103165073813e+00	1.062305087706e+00
3.69000000e-01	1.103233888565e+00	1.062449688681e+00
3.70000000e-01	1.103302866849e+00	1.062593746336e+00
3.71000000e-01	1.103372008096e+00	1.062737264831e+00
3.72000000e-01	1.103441311746e+00	1.062880248298e+00
3.73000000e-01	1.103510777238e+00	1.063022700840e+00
3.74000000e-01	1.103580404021e+00	1.063164626533e+00
