# Układ: x' = x(y-1),  y' = 3x - 2y + x^2 - 2y^2
# IC: x0=0.1, y0=0, dt=1.000e-03, nsteps=10000
# t	x(t)	y(t)
0.00000000e+00	1.000000000000e-01	0.000000000000e+00
1.00000000e-03	1.000009499999e-01	1.899999683333e-03
2.00000000e-03	1.000037999987e-01	3.799997466667e-03
3.00000000e-03	1.000085499936e-01	5.699991450004e-03
4.00000000e-03	1.000151999797e-01	7.599979733350e-03
5.00000000e-03	1.000237499505e-01	9.499960416716e-03
6.00000000e-03	1.000341998974e-01	1.139993160012e-02
7.00000000e-03	1.000465498099e-01	1.329989138360e-02
8.00000000e-03	1.000607996757e-01	1.519983786719e-02
9.00000000e-03	1.000769494806e-01	1.709976915093e-02
1.00000000e-02	1.000949992083e-01	1.899968333492e-02
1.10000000e-02	1.001149488409e-01	2.089957851922e-02
1.20000000e-02	1.001367983584e-01	2.279945280394e-02
1.30000000e-02	1.001605477389e-01	2.469930428921e-02
1.40000000e-02	1.001861969588e-01	2.659913107518e-02
1.50000000e-02	1.002137459922e-01	2.849893126202e-02
1.60000000e-02	1.002431948118e-01	3.039870294994e-02
1.70000000e-02	1.002745433880e-01	3.229844423915e-02
1.80000000e-02	1.003077916895e-01	3.419815322992e-02
1.90000000e-02	1.003429396830e-01	3.609782802254e-02
2.00000000e-02	1.003799873335e-01	3.799746671733e-02
2.10000000e-02	1.004189346038e-01	3.989706741466e-02
2.20000000e-02	1.004597814550e-01	4.179662821493e-02
2.30000000e-02	1.005025278463e-01	4.369614721857e-02
2.40000000e-02	1.005471737349e-01	4.559562252607e-02
2.50000000e-02	1.005937190762e-01	4.749505223795e-02
2.60000000e-02	1.006421638235e-01	4.939443445479e-02
2.70000000e-02	1.006925079286e-01	5.129376727719e-02
2.80000000e-02	1.007447513410e-01	5.319304880583e-02
2.90000000e-02	1.007988940085e-01	5.509227714142e-02
3.00000000e-02	1.008549358769e-01	5.699145038474e-02
3.10000000e-02	1.009128768903e-01	5.889056663662e-02
3.20000000e-02	1.009727169906e-01	6.078962399793e-02
3.30000000e-02	1.010344561180e-01	6.268862056963e-02
3.40000000e-02	1.010980942108e-01	6.458755445271e-02
3.50000000e-02	1.011636312054e-01	6.648642374824e-02
3.60000000e-02	1.012310670361e-01	6.838522655735e-02
3.70000000e-02	1.013004016357e-01	7.028396098124e-02
3.80000000e-02	1.013716349347e-01	7.218262512118e-02
3.90000000e-02	1.014447668619e-01	7.408121707850e-02
4.00000000e-02	1.015197973441e-01	7.597973495460e-02
4.10000000e-02	1.015967263065e-01	7.787817685098e-02
4.20000000e-02	1.016755536719e-01	7.977654086919e-02
4.30000000e-02	1.017562793616e-01	8.167482511086e-02
4.40000000e-02	1.018389032949e-01	8.357302767772e-02
4.50000000e-02	1.019234253891e-01	8.547114667155e-02
4.60000000e-02	1.020098455597e-01	8.736918019425e-02
4.70000000e-02	1.020981637204e-01	8.926712634777e-02
4.80000000e-02	1.021883797827e-01	9.116498323417e-02
4.90000000e-02	1.022804936564e-01	9.306274895560e-02
5.00000000e-02	1.023745052496e-01	9.496042161429e-02
5.10000000e-02	1.024704144680e-01	9.685799931256e-02
5.20000000e-02	1.025682212159e-01	9.875548015284e-02
5.30000000e-02	1.026679253954e-01	1.006528622377e-01
5.40000000e-02	1.027695269068e-01	1.025501436696e-01
5.50000000e-02	1.028730256486e-01	1.044473225514e-01
5.60000000e-02	1.029784215171e-01	1.063443969859e-01
5.70000000e-02	1.030857144071e-01	1.082413650761e-01
5.80000000e-02	1.031949042112e-01	1.101382249248e-01
5.90000000e-02	1.033059908202e-01	1.120349746354e-01
6.00000000e-02	1.034189741231e-01	1.139316123109e-01
6.10000000e-02	1.035338540069e-01	1.158281360549e-01
6.20000000e-02	1.036506303566e-01	1.177245439708e-01
6.30000000e-02	1.037693030556e-01	1.196208341621e-01
6.40000000e-02	1.038898719851e-01	1.215170047326e-01
6.50000000e-02	1.040123370245e-01	1.234130537861e-01
6.60000000e-02	1.041366980515e-01	1.253089794265e-01
6.70000000e-02	1.042629549416e-01	1.272047797580e-01
6.80000000e-02	1.043911075686e-01	1.291004528847e-01
6.90000000e-02	1.045211558043e-01	1.309959969110e-01
7.00000000e-02	1.046530995188e-01	1.328914099413e-01
7.10000000e-02	1.047869385799e-01	1.347866900802e-01
7.20000000e-02	1.049226728540e-01	1.366818354324e-01
7.30000000e-02	1.050603022052e-01	1.385768441028e-01
7.40000000e-02	1.051998264960e-01	1.404717141964e-01
7.50000000e-02	1.053412455868e-01	1.423664438182e-01
7.60000000e-02	1.054845593362e-01	1.442610310736e-01
7.70000000e-02	1.056297676009e-01	1.461554740680e-01
7.80000000e-02	1.057768702356e-01	1.480497709070e-01
7.90000000e-02	1.059258670933e-01	1.499439196962e-01
8.00000000e-02	1.060767580250e-01	1.518379185414e-01
8.10000000e-02	1.062295428798e-01	1.537317655488e-01
8.20000000e-02	1.063842215049e-01	1.556254588244e-01
8.30000000e-02	1.065407937456e-01	1.575189964746e-01
8.40000000e-02	1.066992594453e-01	1.594123766058e-01
8.50000000e-02	1.068596184456e-01	1.613055973246e-01
8.60000000e-02	1.070218705862e-01	1.631986567378e-01
8.70000000e-02	1.071860157047e-01	1.650915529524e-01
8.80000000e-02	1.073520536371e-01	1.669842840755e-01
8.90000000e-02	1.075199842172e-01	1.688768482143e-01
9.00000000e-02	1.076898072772e-01	1.707692434762e-01
9.10000000e-02	1.078615226472e-01	1.726614679689e-01
9.20000000e-02	1.080351301556e-01	1.745535198002e-01
9.30000000e-02	1.082106296287e-01	1.764453970780e-01
9.40000000e-02	1.083880208909e-01	1.783370979104e-01
9.50000000e-02	1.085673037650e-01	1.802286204057e-01
9.60000000e-02	1.087484780717e-01	1.821199626724e-01
9.70000000e-02	1.089315436297e-01	1.840111228191e-01
9.80000000e-02	1.091165002560e-01	1.859020989547e-01
9.90000000e-02	1.093033477656e-01	1.877928891883e-01
1.00000000e-01	1.094920859718e-01	1.896834916290e-01
1.01000000e-01	1.096827146856e-01	1.915739043862e-01
1.02000000e-01	1.098752337167e-01	1.934641255695e-01
1.03000000e-01	1.100696428723e-01	1.953541532887e-01
1.04000000e-01	1.102659419581e-01	1.972439856538e-01
1.05000000e-01	1.104641307779e-01	1.991336207749e-01
1.06000000e-01	1.106642091333e-01	2.010230567624e-01
1.07000000e-01	1.108661768244e-01	2.029122917268e-01
1.08000000e-01	1.110700336491e-01	2.048013237790e-01
1.09000000e-01	1.112757794037e-01	2.066901510299e-01
1.10000000e-01	1.114834138823e-01	2.085787715906e-01
1.11000000e-01	1.116929368773e-01	2.104671835726e-01
1.12000000e-01	1.119043481793e-01	2.123553850874e-01
1.13000000e-01	1.121176475767e-01	2.142433742469e-01
1.14000000e-01	1.123328348563e-01	2.161311491630e-01
1.15000000e-01	1.125499098030e-01	2.180187079480e-01
1.16000000e-01	1.127688721996e-01	2.199060487142e-01
1.17000000e-01	1.129897218271e-01	2.217931695745e-01
1.18000000e-01	1.132124584648e-01	2.236800686416e-01
1.19000000e-01	1.134370818898e-01	2.255667440286e-01
1.20000000e-01	1.136635918777e-01	2.274531938489e-01
1.21000000e-01	1.138919882017e-01	2.293394162161e-01
1.22000000e-01	1.141222706336e-01	2.312254092438e-01
1.23000000e-01	1.143544389431e-01	2.331111710462e-01
1.24000000e-01	1.145884928980e-01	2.349966997374e-01
1.25000000e-01	1.148244322643e-01	2.368819934319e-01
1.26000000e-01	1.150622568059e-01	2.387670502445e-01
1.27000000e-01	1.153019662852e-01	2.406518682900e-01
1.28000000e-01	1.155435604623e-01	2.425364456837e-01
1.29000000e-01	1.157870390957e-01	2.444207805409e-01
1.30000000e-01	1.160324019419e-01	2.463048709774e-01
1.31000000e-01	1.162796487555e-01	2.481887151091e-01
1.32000000e-01	1.165287792894e-01	2.500723110520e-01
1.33000000e-01	1.167797932943e-01	2.519556569227e-01
1.34000000e-01	1.170326905193e-01	2.538387508377e-01
1.35000000e-01	1.172874707114e-01	2.557215909140e-01
1.36000000e-01	1.175441336158e-01	2.576041752687e-01
1.37000000e-01	1.178026789760e-01	2.594865020192e-01
1.38000000e-01	1.180631065334e-01	2.613685692833e-01
1.39000000e-01	1.183254160275e-01	2.632503751789e-01
1.40000000e-01	1.185896071960e-01	2.651319178240e-01
1.41000000e-01	1.188556797747e-01	2.670131953373e-01
1.42000000e-01	1.191236334977e-01	2.688942058375e-01
1.43000000e-01	1.193934680968e-01	2.707749474434e-01
1.44000000e-01	1.196651833023e-01	2.726554182744e-01
1.45000000e-01	1.199387788424e-01	2.745356164500e-01
1.46000000e-01	1.202142544437e-01	2.764155400900e-01
1.47000000e-01	1.204916098305e-01	2.782951873145e-01
1.48000000e-01	1.207708447255e-01	2.801745562439e-01
1.49000000e-01	1.210519588496e-01	2.820536449987e-01
1.50000000e-01	1.213349519215e-01	2.839324516998e-01
1.51000000e-01	1.216198236583e-01	2.858109744686e-01
1.52000000e-01	1.219065737752e-01	2.876892114264e-01
1.53000000e-01	1.221952019853e-01	2.895671606950e-01
1.54000000e-01	1.224857080001e-01	2.914448203965e-01
1.55000000e-01	1.227780915289e-01	2.933221886532e-01
1.56000000e-01	1.230723522796e-01	2.951992635877e-01
1.57000000e-01	1.233684899577e-01	2.970760433230e-01
1.58000000e-01	1.236665042672e-01	2.989525259822e-01
1.59000000e-01	1.239663949100e-01	3.008287096890e-01
1.60000000e-01	1.242681615863e-01	3.027045925671e-01
1.61000000e-01	1.245718039943e-01	3.045801727406e-01
1.62000000e-01	1.248773218303e-01	3.064554483339e-01
1.63000000e-01	1.251847147888e-01	3.083304174719e-01
1.64000000e-01	1.254939825624e-01	3.102050782794e-01
1.65000000e-01	1.258051248419e-01	3.120794288819e-01
1.66000000e-01	1.261181413162e-01	3.139534674050e-01
1.67000000e-01	1.264330316721e-01	3.158271919747e-01
1.68000000e-01	1.267497955948e-01	3.177006007171e-01
1.69000000e-01	1.270684327676e-01	3.195736917590e-01
1.70000000e-01	1.273889428718e-01	3.214464632273e-01
1.71000000e-01	1.277113255869e-01	3.233189132491e-01
1.72000000e-01	1.280355805906e-01	3.251910399520e-01
1.73000000e-01	1.283617075584e-01	3.270628414639e-01
1.74000000e-01	1.286897061645e-01	3.289343159130e-01
1.75000000e-01	1.290195760806e-01	3.308054614278e-01
1.76000000e-01	1.293513169771e-01	3.326762761372e-01
1.77000000e-01	1.296849285220e-01	3.345467581703e-01
1.78000000e-01	1.300204103819e-01	3.364169056567e-01
1.79000000e-01	1.303577622212e-01	3.382867167262e-01
1.80000000e-01	1.306969837026e-01	3.401561895091e-01
1.81000000e-01	1.310380744868e-01	3.420253221357e-01
1.82000000e-01	1.313810342328e-01	3.438941127371e-01
1.83000000e-01	1.317258625977e-01	3.457625594444e-01
1.84000000e-01	1.320725592365e-01	3.476306603892e-01
1.85000000e-01	1.324211238026e-01	3.494984137033e-01
1.86000000e-01	1.327715559474e-01	3.513658175190e-01
1.87000000e-01	1.331238553205e-01	3.532328699690e-01
1.88000000e-01	1.334780215696e-01	3.550995691861e-01
1.89000000e-01	1.338340543405e-01	3.569659133037e-01
1.90000000e-01	1.341919532772e-01	3.588319004554e-01
1.91000000e-01	1.345517180218e-01	3.606975287752e-01
1.92000000e-01	1.349133482145e-01	3.625627963975e-01
1.93000000e-01	1.352768434937e-01	3.644277014570e-01
1.94000000e-01	1.356422034959e-01	3.662922420889e-01
1.95000000e-01	1.360094278558e-01	3.681564164286e-01
1.96000000e-01	1.363785162061e-01	3.700202226119e-01
1.97000000e-01	1.367494681777e-01	3.718836587750e-01
1.98000000e-01	1.371222833997e-01	3.737467230544e-01
1.99000000e-01	1.374969614992e-01	3.756094135872e-01
2.00000000e-01	1.378735021016e-01	3.774717285106e-01
2.01000000e-01	1.382519048304e-01	3.793336659623e-01
2.02000000e-01	1.386321693071e-01	3.811952240804e-01
2.03000000e-01	1.390142951515e-01	3.830564010032e-01
2.04000000e-01	1.393982819814e-01	3.849171948697e-01
2.05000000e-01	1.397841294129e-01	3.867776038191e-01
2.06000000e-01	1.401718370602e-01	3.886376259908e-01
2.07000000e-01	1.405614045354e-01	3.904972595250e-01
2.08000000e-01	1.409528314490e-01	3.923565025620e-01
2.09000000e-01	1.413461174097e-01	3.942153532424e-01
2.10000000e-01	1.417412620241e-01	3.960738097076e-01
2.11000000e-01	1.421382648971e-01	3.979318700990e-01
2.12000000e-01	1.425371256317e-01	3.997895325585e-01
2.13000000e-01	1.429378438290e-01	4.016467952285e-01
2.14000000e-01	1.433404190882e-01	4.035036562518e-01
2.15000000e-01	1.437448510070e-01	4.053601137715e-01
2.16000000e-01	1.441511391807e-01	4.072161659311e-01
2.17000000e-01	1.445592832031e-01	4.090718108745e-01
2.18000000e-01	1.449692826661e-01	4.109270467462e-01
2.19000000e-01	1.453811371596e-01	4.127818716908e-01
2.20000000e-01	1.457948462718e-01	4.146362838537e-01
2.21000000e-01	1.462104095891e-01	4.164902813802e-01
2.22000000e-01	1.466278266958e-01	4.183438624165e-01
2.23000000e-01	1.470470971745e-01	4.201970251090e-01
2.24000000e-01	1.474682206059e-01	4.220497676045e-01
2.25000000e-01	1.478911965690e-01	4.239020880503e-01
2.26000000e-01	1.483160246407e-01	4.257539845940e-01
2.27000000e-01	1.487427043963e-01	4.276054553838e-01
2.28000000e-01	1.491712354090e-01	4.294564985682e-01
2.29000000e-01	1.496016172503e-01	4.313071122960e-01
2.30000000e-01	1.500338494898e-01	4.331572947169e-01
2.31000000e-01	1.504679316953e-01	4.350070439804e-01
2.32000000e-01	1.509038634327e-01	4.368563582370e-01
2.33000000e-01	1.513416442662e-01	4.387052356372e-01
2.34000000e-01	1.517812737578e-01	4.405536743322e-01
2.35000000e-01	1.522227514680e-01	4.424016724736e-01
2.36000000e-01	1.526660769553e-01	4.442492282133e-01
2.37000000e-01	1.531112497763e-01	4.460963397039e-01
2.38000000e-01	1.535582694860e-01	4.479430050982e-01
2.39000000e-01	1.540071356372e-01	4.497892225495e-01
2.40000000e-01	1.544578477811e-01	4.516349902116e-01
2.41000000e-01	1.549104054671e-01	4.534803062387e-01
2.42000000e-01	1.553648082425e-01	4.553251687856e-01
2.43000000e-01	1.558210556529e-01	4.571695760073e-01
2.44000000e-01	1.562791472421e-01	4.590135260596e-01
2.45000000e-01	1.567390825520e-01	4.608570170983e-01
2.46000000e-01	1.572008611227e-01	4.627000472800e-01
2.47000000e-01	1.576644824923e-01	4.645426147618e-01
2.48000000e-01	1.581299461973e-01	4.663847177009e-01
2.49000000e-01	1.585972517723e-01	4.682263542554e-01
2.50000000e-01	1.590663987498e-01	4.700675225836e-01
2.51000000e-01	1.595373866607e-01	4.719082208443e-01
2.52000000e-01	1.600102150342e-01	4.737484471968e-01
2.53000000e-01	1.604848833972e-01	4.755881998009e-01
2.54000000e-01	1.609613912752e-01	4.774274768168e-01
2.55000000e-01	1.614397381917e-01	4.792662764053e-01
2.56000000e-01	1.619199236683e-01	4.811045967276e-01
2.57000000e-01	1.624019472248e-01	4.829424359453e-01
2.58000000e-01	1.628858083792e-01	4.847797922206e-01
2.59000000e-01	1.633715066476e-01	4.866166637162e-01
2.60000000e-01	1.638590415444e-01	4.884530485951e-01
2.61000000e-01	1.643484125820e-01	4.902889450210e-01
2.62000000e-01	1.648396192710e-01	4.921243511580e-01
2.63000000e-01	1.653326611203e-01	4.939592651708e-01
2.64000000e-01	1.658275376367e-01	4.957936852243e-01
2.65000000e-01	1.663242483255e-01	4.976276094841e-01
2.66000000e-01	1.668227926898e-01	4.994610361164e-01
2.67000000e-01	1.673231702312e-01	5.012939632877e-01
2.68000000e-01	1.678253804493e-01	5.031263891650e-01
2.69000000e-01	1.683294228418e-01	5.049583119160e-01
2.70000000e-01	1.688352969048e-01	5.067897297088e-01
2.71000000e-01	1.693430021323e-01	5.086206407118e-01
2.72000000e-01	1.698525380167e-01	5.104510430943e-01
2.73000000e-01	1.703639040484e-01	5.122809350258e-01
2.74000000e-01	1.708770997160e-01	5.141103146763e-01
2.75000000e-01	1.713921245063e-01	5.159391802166e-01
2.76000000e-01	1.719089779044e-01	5.177675298178e-01
2.77000000e-01	1.724276593934e-01	5.195953616514e-01
2.78000000e-01	1.729481684545e-01	5.214226738898e-01
2.79000000e-01	1.734705045674e-01	5.232494647055e-01
2.80000000e-01	1.739946672095e-01	5.250757322718e-01
2.81000000e-01	1.745206558569e-01	5.269014747624e-01
2.82000000e-01	1.750484699834e-01	5.287266903516e-01
2.83000000e-01	1.755781090613e-01	5.305513772141e-01
2.84000000e-01	1.761095725610e-01	5.323755335253e-01
2.85000000e-01	1.766428599509e-01	5.341991574611e-01
2.86000000e-01	1.771779706979e-01	5.360222471977e-01
2.87000000e-01	1.777149042667e-01	5.378448009121e-01
2.88000000e-01	1.782536601204e-01	5.396668167817e-01
2.89000000e-01	1.787942377203e-01	5.414882929846e-01
2.90000000e-01	1.793366365259e-01	5.433092276992e-01
2.91000000e-01	1.798808559946e-01	5.451296191046e-01
2.92000000e-01	1.804268955824e-01	5.469494653805e-01
2.93000000e-01	1.809747547431e-01	5.487687647069e-01
2.94000000e-01	1.815244329289e-01	5.505875152647e-01
2.95000000e-01	1.820759295901e-01	5.524057152349e-01
2.96000000e-01	1.826292441752e-01	5.542233627995e-01
2.97000000e-01	1.831843761309e-01	5.560404561408e-01
2.98000000e-01	1.837413249021e-01	5.578569934416e-01
2.99000000e-01	1.843000899319e-01	5.596729728856e-01
3.00000000e-01	1.848606706613e-01	5.614883926565e-01
3.01000000e-01	1.854230665300e-01	5.633032509392e-01
3.02000000e-01	1.859872769755e-01	5.651175459186e-01
3.03000000e-01	1.865533014335e-01	5.669312757806e-01
3.04000000e-01	1.871211393380e-01	5.687444387113e-01
3.05000000e-01	1.876907901213e-01	5.705570328976e-01
3.06000000e-01	1.882622532137e-01	5.723690565269e-01
3.07000000e-01	1.888355280436e-01	5.741805077873e-01
3.08000000e-01	1.894106140378e-01	5.759913848671e-01
3.09000000e-01	1.899875106213e-01	5.778016859557e-01
3.10000000e-01	1.905662172171e-01	5.796114092425e-01
3.11000000e-01	1.911467332466e-01	5.814205529181e-01
3.12000000e-01	1.917290581292e-01	5.832291151731e-01
3.13000000e-01	1.923131912825e-01	5.850370941991e-01
3.14000000e-01	1.928991321226e-01	5.868444881880e-01
3.15000000e-01	1.934868800633e-01	5.886512953324e-01
3.16000000e-01	1.940764345170e-01	5.904575138257e-01
3.17000000e-01	1.946677948941e-01	5.922631418614e-01
3.18000000e-01	1.952609606033e-01	5.940681776341e-01
3.19000000e-01	1.958559310514e-01	5.958726193387e-01
3.20000000e-01	1.964527056434e-01	5.976764651706e-01
3.21000000e-01	1.970512837825e-01	5.994797133262e-01
3.22000000e-01	1.976516648702e-01	6.012823620021e-01
3.23000000e-01	1.982538483061e-01	6.030844093957e-01
3.24000000e-01	1.988578334880e-01	6.048858537049e-01
3.25000000e-01	1.994636198118e-01	6.066866931283e-01
3.26000000e-01	2.000712066720e-01	6.084869258651e-01
3.27000000e-01	2.006805934608e-01	6.102865501150e-01
3.28000000e-01	2.012917795688e-01	6.120855640784e-01
3.29000000e-01	2.019047643849e-01	6.138839659563e-01
3.30000000e-01	2.025195472961e-01	6.156817539502e-01
3.31000000e-01	2.031361276876e-01	6.174789262625e-01
3.32000000e-01	2.037545049428e-01	6.192754810959e-01
3.33000000e-01	2.043746784433e-01	6.210714166539e-01
3.34000000e-01	2.049966475690e-01	6.228667311405e-01
3.35000000e-01	2.056204116980e-01	6.246614227604e-01
3.36000000e-01	2.062459702063e-01	6.264554897190e-01
3.37000000e-01	2.068733224686e-01	6.282489302221e-01
3.38000000e-01	2.075024678574e-01	6.300417424763e-01
3.39000000e-01	2.081334057435e-01	6.318339246889e-01
3.40000000e-01	2.087661354961e-01	6.336254750675e-01
3.41000000e-01	2.094006564825e-01	6.354163918208e-01
3.42000000e-01	2.100369680680e-01	6.372066731577e-01
3.43000000e-01	2.106750696164e-01	6.389963172880e-01
3.44000000e-01	2.113149604896e-01	6.407853224220e-01
3.45000000e-01	2.119566400476e-01	6.425736867708e-01
3.46000000e-01	2.126001076489e-01	6.443614085459e-01
3.47000000e-01	2.132453626499e-01	6.461484859597e-01
3.48000000e-01	2.138924044054e-01	6.479349172250e-01
3.49000000e-01	2.145412322684e-01	6.497207005555e-01
3.50000000e-01	2.151918455900e-01	6.515058341654e-01
3.51000000e-01	2.158442437196e-01	6.532903162694e-01
3.52000000e-01	2.164984260048e-01	6.550741450832e-01
3.53000000e-01	2.171543917914e-01	6.568573188229e-01
3.54000000e-01	2.178121404234e-01	6.586398357053e-01
3.55000000e-01	2.184716712432e-01	6.604216939480e-01
3.56000000e-01	2.191329835912e-01	6.622028917690e-01
3.57000000e-01	2.197960768060e-01	6.639834273872e-01
3.58000000e-01	2.204609502247e-01	6.657632990220e-01
3.59000000e-01	2.211276031822e-01	6.675425048936e-01
3.60000000e-01	2.217960350119e-01	6.693210432227e-01
3.61000000e-01	2.224662450455e-01	6.710989122308e-01
3.62000000e-01	2.231382326127e-01	6.728761101401e-01
3.63000000e-01	2.238119970415e-01	6.746526351733e-01
3.64000000e-01	2.244875376581e-01	6.764284855539e-01
3.65000000e-01	2.251648537871e-01	6.782036595061e-01
3.66000000e-01	2.258439447511e-01	6.799781552547e-01
3.67000000e-01	2.265248098710e-01	6.817519710252e-01
3.68000000e-01	2.272074484659e-01	6.835251050438e-01
3.69000000e-01	2.278918598532e-01	6.852975555374e-01
3.70000000e-01	2.285780433485e-01	6.870693207334e-01
3.71000000e-01	2.292659982657e-01	6.888403988602e-01
3.72000000e-01	2.299557239166e-01	6.906107881467e-01
3.73000000e-01	2.306472196118e-01	6.923804868224e-01
3.74000000e-01	2.313404846595e-01	6.941494931176e-01
