# Układ: x' = x(y-1),  y' = 3x - 2y + x^2 - 2y^2
# IC: x0=2, y0=0, dt=1.000e-03, nsteps=10000
# t	x(t)	y(t)
0.00000000e+00	2.000000000000e+00	0.000000000000e+00
1.00000000e-03	1.999999000000e+00	-1.999999666667e-03
2.00000000e-03	1.999996000001e+00	-3.999997333334e-03
3.00000000e-03	1.999991000007e+00	-5.999991000004e-03
4.00000000e-03	1.999984000021e+00	-7.999978666684e-03
5.00000000e-03	1.999975000052e+00	-9.999958333385e-03
6.00000000e-03	1.999964000108e+00	-1.199992800013e-02
7.00000000e-03	1.999951000200e+00	-1.399988566695e-02
8.00000000e-03	1.999936000341e+00	-1.599982933388e-02
9.00000000e-03	1.999919000547e+00	-1.799975700098e-02
1.00000000e-02	1.999900000833e+00	-1.999966666833e-02
1.10000000e-02	1.999879001220e+00	-2.199955633602e-02
1.20000000e-02	1.999856001728e+00	-2.399942400415e-02
1.30000000e-02	1.999831002380e+00	-2.599926767285e-02
1.40000000e-02	1.999804003201e+00	-2.799908534230e-02
1.50000000e-02	1.999775004219e+00	-2.999887501266e-02
1.60000000e-02	1.999744005461e+00	-3.199863468414e-02
1.70000000e-02	1.999711006960e+00	-3.399836235700e-02
1.80000000e-02	1.999676008748e+00	-3.599805603149e-02
1.90000000e-02	1.999639010860e+00	-3.799771370793e-02
2.00000000e-02	1.999600013333e+00	-3.999733338667e-02
2.10000000e-02	1.999559016207e+00	-4.199691306807e-02
2.20000000e-02	1.999516019521e+00	-4.399645075256e-02
2.30000000e-02	1.999471023320e+00	-4.599594444060e-02
2.40000000e-02	1.999424027647e+00	-4.799539213271e-02
2.50000000e-02	1.999375032551e+00	-4.999479182942e-02
2.60000000e-02	1.999324038080e+00	-5.199414153135e-02
2.70000000e-02	1.999271044286e+00	-5.399343923914e-02
2.80000000e-02	1.999216051220e+00	-5.599268295350e-02
2.90000000e-02	1.999159058938e+00	-5.799187067518e-02
3.00000000e-02	1.999100067498e+00	-5.999100040499e-02
3.10000000e-02	1.999039076958e+00	-6.199007014381e-02
3.20000000e-02	1.998976087378e+00	-6.398907789256e-02
3.30000000e-02	1.998911098823e+00	-6.598802165224e-02
3.40000000e-02	1.998844111357e+00	-6.798689942390e-02
3.50000000e-02	1.998775125047e+00	-6.998570920867e-02
3.60000000e-02	1.998704139962e+00	-7.198444900774e-02
3.70000000e-02	1.998631156173e+00	-7.398311682236e-02
3.80000000e-02	1.998556173753e+00	-7.598171065387e-02
3.90000000e-02	1.998479192777e+00	-7.798022850368e-02
4.00000000e-02	1.998400213322e+00	-7.997866837327e-02
4.10000000e-02	1.998319235467e+00	-8.197702826419e-02
4.20000000e-02	1.998236259293e+00	-8.397530617810e-02
4.30000000e-02	1.998151284883e+00	-8.597350011670e-02
4.40000000e-02	1.998064312321e+00	-8.797160808181e-02
4.50000000e-02	1.997975341696e+00	-8.996962807532e-02
4.60000000e-02	1.997884373095e+00	-9.196755809921e-02
4.70000000e-02	1.997791406610e+00	-9.396539615555e-02
4.80000000e-02	1.997696442334e+00	-9.596314024650e-02
4.90000000e-02	1.997599480362e+00	-9.796078837432e-02
5.00000000e-02	1.997500520790e+00	-9.995833854136e-02
5.10000000e-02	1.997399563718e+00	-1.019557887501e-01
5.20000000e-02	1.997296609246e+00	-1.039531370030e-01
5.30000000e-02	1.997191657479e+00	-1.059503813028e-01
5.40000000e-02	1.997084708519e+00	-1.079475196522e-01
5.50000000e-02	1.996975762475e+00	-1.099445500541e-01
5.60000000e-02	1.996864819456e+00	-1.119414705115e-01
5.70000000e-02	1.996751879571e+00	-1.139382790274e-01
5.80000000e-02	1.996636942936e+00	-1.159349736051e-01
5.90000000e-02	1.996520009663e+00	-1.179315522478e-01
6.00000000e-02	1.996401079870e+00	-1.199280129589e-01
6.10000000e-02	1.996280153677e+00	-1.219243537420e-01
6.20000000e-02	1.996157231204e+00	-1.239205726008e-01
6.30000000e-02	1.996032312573e+00	-1.259166675390e-01
6.40000000e-02	1.995905397910e+00	-1.279126365606e-01
6.50000000e-02	1.995776487343e+00	-1.299084776696e-01
6.60000000e-02	1.995645580998e+00	-1.319041888700e-01
6.70000000e-02	1.995512679009e+00	-1.338997681663e-01
6.80000000e-02	1.995377781507e+00	-1.358952135629e-01
6.90000000e-02	1.995240888627e+00	-1.378905230642e-01
7.00000000e-02	1.995102000507e+00	-1.398856946751e-01
7.10000000e-02	1.994961117284e+00	-1.418807264002e-01
7.20000000e-02	1.994818239101e+00	-1.438756162446e-01
7.30000000e-02	1.994673366100e+00	-1.458703622135e-01
7.40000000e-02	1.994526498425e+00	-1.478649623120e-01
7.50000000e-02	1.994377636224e+00	-1.498594145455e-01
7.60000000e-02	1.994226779646e+00	-1.518537169196e-01
7.70000000e-02	1.994073928841e+00	-1.538478674400e-01
7.80000000e-02	1.993919083963e+00	-1.558418641126e-01
7.90000000e-02	1.993762245165e+00	-1.578357049433e-01
8.00000000e-02	1.993603412605e+00	-1.598293879383e-01
8.10000000e-02	1.993442586442e+00	-1.618229111040e-01
8.20000000e-02	1.993279766837e+00	-1.638162724467e-01
8.30000000e-02	1.993114953952e+00	-1.658094699732e-01
8.40000000e-02	1.992948147952e+00	-1.678025016903e-01
8.50000000e-02	1.992779349005e+00	-1.697953656048e-01
8.60000000e-02	1.992608557278e+00	-1.717880597240e-01
8.70000000e-02	1.992435772942e+00	-1.737805820552e-01
8.80000000e-02	1.992260996172e+00	-1.757729306058e-01
8.90000000e-02	1.992084227140e+00	-1.777651033834e-01
9.00000000e-02	1.991905466024e+00	-1.797570983960e-01
9.10000000e-02	1.991724713003e+00	-1.817489136515e-01
9.20000000e-02	1.991541968257e+00	-1.837405471581e-01
9.30000000e-02	1.991357231970e+00	-1.857319969242e-01
9.40000000e-02	1.991170504325e+00	-1.877232609583e-01
9.50000000e-02	1.990981785510e+00	-1.897143372691e-01
9.60000000e-02	1.990791075714e+00	-1.917052238656e-01
9.70000000e-02	1.990598375127e+00	-1.936959187569e-01
9.80000000e-02	1.990403683941e+00	-1.956864199524e-01
9.90000000e-02	1.990207002352e+00	-1.976767254614e-01
1.00000000e-01	1.990008330556e+00	-1.996668332937e-01
1.01000000e-01	1.989807668752e+00	-2.016567414591e-01
1.02000000e-01	1.989605017140e+00	-2.036464479679e-01
1.03000000e-01	1.989400375924e+00	-2.056359508302e-01
1.04000000e-01	1.989193745307e+00	-2.076252480566e-01
1.05000000e-01	1.988985125497e+00	-2.096143376578e-01
1.06000000e-01	1.988774516702e+00	-2.116032176446e-01
1.07000000e-01	1.988561919132e+00	-2.135918860282e-01
1.08000000e-01	1.988347333001e+00	-2.155803408200e-01
1.09000000e-01	1.988130758522e+00	-2.175685800315e-01
1.10000000e-01	1.987912195913e+00	-2.195566016743e-01
1.11000000e-01	1.987691645392e+00	-2.215444037607e-01
1.12000000e-01	1.987469107180e+00	-2.235319843026e-01
1.13000000e-01	1.987244581498e+00	-2.255193413125e-01
1.14000000e-01	1.987018068572e+00	-2.275064728032e-01
1.15000000e-01	1.986789568628e+00	-2.294933767873e-01
1.16000000e-01	1.986559081895e+00	-2.314800512781e-01
1.17000000e-01	1.986326608603e+00	-2.334664942889e-01
1.18000000e-01	1.986092148984e+00	-2.354527038332e-01
1.19000000e-01	1.985855703274e+00	-2.374386779249e-01
1.20000000e-01	1.985617271708e+00	-2.394244145778e-01
1.21000000e-01	1.985376854525e+00	-2.414099118064e-01
1.22000000e-01	1.985134451965e+00	-2.433951676251e-01
1.23000000e-01	1.984890064270e+00	-2.453801800486e-01
1.24000000e-01	1.984643691686e+00	-2.473649470920e-01
1.25000000e-01	1.984395334459e+00	-2.493494667705e-01
1.26000000e-01	1.984144992836e+00	-2.513337370995e-01
1.27000000e-01	1.983892667068e+00	-2.533177560947e-01
1.28000000e-01	1.983638357408e+00	-2.553015217723e-01
1.29000000e-01	1.983382064110e+00	-2.572850321483e-01
1.30000000e-01	1.983123787430e+00	-2.592682852394e-01
1.31000000e-01	1.982863527626e+00	-2.612512790622e-01
1.32000000e-01	1.982601284959e+00	-2.632340116337e-01
1.33000000e-01	1.982337059690e+00	-2.652164809712e-01
1.34000000e-01	1.982070852085e+00	-2.671986850923e-01
1.35000000e-01	1.981802662409e+00	-2.691806220147e-01
1.36000000e-01	1.981532490931e+00	-2.711622897565e-01
1.37000000e-01	1.981260337920e+00	-2.731436863360e-01
1.38000000e-01	1.980986203649e+00	-2.751248097719e-01
1.39000000e-01	1.980710088392e+00	-2.771056580830e-01
1.40000000e-01	1.980431992425e+00	-2.790862292885e-01
1.41000000e-01	1.980151916027e+00	-2.810665214077e-01
1.42000000e-01	1.979869859476e+00	-2.830465324605e-01
1.43000000e-01	1.979585823056e+00	-2.850262604667e-01
1.44000000e-01	1.979299807050e+00	-2.870057034467e-01
1.45000000e-01	1.979011811745e+00	-2.889848594211e-01
1.46000000e-01	1.978721837428e+00	-2.909637264105e-01
1.47000000e-01	1.978429884389e+00	-2.929423024363e-01
1.48000000e-01	1.978135952920e+00	-2.949205855198e-01
1.49000000e-01	1.977840043316e+00	-2.968985736828e-01
1.50000000e-01	1.977542155872e+00	-2.988762649472e-01
1.51000000e-01	1.977242290886e+00	-3.008536573354e-01
1.52000000e-01	1.976940448658e+00	-3.028307488699e-01
1.53000000e-01	1.976636629489e+00	-3.048075375737e-01
1.54000000e-01	1.976330833684e+00	-3.067840214700e-01
1.55000000e-01	1.976023061548e+00	-3.087601985823e-01
1.56000000e-01	1.975713313390e+00	-3.107360669344e-01
1.57000000e-01	1.975401589518e+00	-3.127116245505e-01
1.58000000e-01	1.975087890245e+00	-3.146868694550e-01
1.59000000e-01	1.974772215884e+00	-3.166617996726e-01
1.60000000e-01	1.974454566751e+00	-3.186364132285e-01
1.61000000e-01	1.974134943164e+00	-3.206107081480e-01
1.62000000e-01	1.973813345442e+00	-3.225846824568e-01
1.63000000e-01	1.973489773907e+00	-3.245583341809e-01
1.64000000e-01	1.973164228882e+00	-3.265316613468e-01
1.65000000e-01	1.972836710693e+00	-3.285046619810e-01
1.66000000e-01	1.972507219667e+00	-3.304773341105e-01
1.67000000e-01	1.972175756135e+00	-3.324496757628e-01
1.68000000e-01	1.971842320426e+00	-3.344216849654e-01
1.69000000e-01	1.971506912876e+00	-3.363933597464e-01
1.70000000e-01	1.971169533819e+00	-3.383646981340e-01
1.71000000e-01	1.970830183593e+00	-3.403356981569e-01
1.72000000e-01	1.970488862536e+00	-3.423063578442e-01
1.73000000e-01	1.970145570991e+00	-3.442766752252e-01
1.74000000e-01	1.969800309301e+00	-3.462466483295e-01
1.75000000e-01	1.969453077810e+00	-3.482162751872e-01
1.76000000e-01	1.969103876866e+00	-3.501855538286e-01
1.77000000e-01	1.968752706819e+00	-3.521544822846e-01
1.78000000e-01	1.968399568019e+00	-3.541230585860e-01
1.79000000e-01	1.968044460820e+00	-3.560912807645e-01
1.80000000e-01	1.967687385576e+00	-3.580591468516e-01
1.81000000e-01	1.967328342645e+00	-3.600266548797e-01
1.82000000e-01	1.966967332386e+00	-3.619938028812e-01
1.83000000e-01	1.966604355160e+00	-3.639605888888e-01
1.84000000e-01	1.966239411330e+00	-3.659270109359e-01
1.85000000e-01	1.965872501260e+00	-3.678930670561e-01
1.86000000e-01	1.965503625319e+00	-3.698587552832e-01
1.87000000e-01	1.965132783873e+00	-3.718240736516e-01
1.88000000e-01	1.964759977295e+00	-3.737890201959e-01
1.89000000e-01	1.964385205957e+00	-3.757535929512e-01
1.90000000e-01	1.964008470235e+00	-3.777177899530e-01
1.91000000e-01	1.963629770503e+00	-3.796816092370e-01
1.92000000e-01	1.963249107143e+00	-3.816450488395e-01
1.93000000e-01	1.962866480533e+00	-3.836081067969e-01
1.94000000e-01	1.962481891057e+00	-3.855707811462e-01
1.95000000e-01	1.962095339099e+00	-3.875330699248e-01
1.96000000e-01	1.961706825046e+00	-3.894949711704e-01
1.97000000e-01	1.961316349287e+00	-3.914564829210e-01
1.98000000e-01	1.960923912211e+00	-3.934176032152e-01
1.99000000e-01	1.960529514211e+00	-3.953783300918e-01
2.00000000e-01	1.960133155682e+00	-3.973386615901e-01
2.01000000e-01	1.959734837021e+00	-3.992985957498e-01
2.02000000e-01	1.959334558624e+00	-4.012581306109e-01
2.03000000e-01	1.958932320893e+00	-4.032172642139e-01
2.04000000e-01	1.958528124230e+00	-4.051759945997e-01
2.05000000e-01	1.958121969039e+00	-4.071343198096e-01
2.06000000e-01	1.957713855726e+00	-4.090922378851e-01
2.07000000e-01	1.957303784700e+00	-4.110497468684e-01
2.08000000e-01	1.956891756369e+00	-4.130068448021e-01
2.09000000e-01	1.956477771148e+00	-4.149635297289e-01
2.10000000e-01	1.956061829448e+00	-4.169197996922e-01
2.11000000e-01	1.955643931687e+00	-4.188756527358e-01
2.12000000e-01	1.955224078282e+00	-4.208310869037e-01
2.13000000e-01	1.954802269654e+00	-4.227861002406e-01
2.14000000e-01	1.954378506223e+00	-4.247406907914e-01
2.15000000e-01	1.953952788414e+00	-4.266948566016e-01
2.16000000e-01	1.953525116652e+00	-4.286485957169e-01
2.17000000e-01	1.953095491365e+00	-4.306019061837e-01
2.18000000e-01	1.952663912983e+00	-4.325547860486e-01
2.19000000e-01	1.952230381937e+00	-4.345072333588e-01
2.20000000e-01	1.951794898661e+00	-4.364592461617e-01
2.21000000e-01	1.951357463590e+00	-4.384108225055e-01
2.22000000e-01	1.950918077162e+00	-4.403619604385e-01
2.23000000e-01	1.950476739816e+00	-4.423126580095e-01
2.24000000e-01	1.950033451994e+00	-4.442629132679e-01
2.25000000e-01	1.949588214138e+00	-4.462127242635e-01
2.26000000e-01	1.949141026694e+00	-4.481620890464e-01
2.27000000e-01	1.948691890109e+00	-4.501110056672e-01
2.28000000e-01	1.948240804833e+00	-4.520594721770e-01
2.29000000e-01	1.947787771316e+00	-4.540074866274e-01
2.30000000e-01	1.947332790011e+00	-4.559550470704e-01
2.31000000e-01	1.946875861373e+00	-4.579021515583e-01
2.32000000e-01	1.946416985860e+00	-4.598487981442e-01
2.33000000e-01	1.945956163930e+00	-4.617949848812e-01
2.34000000e-01	1.945493396044e+00	-4.637407098234e-01
2.35000000e-01	1.945028682665e+00	-4.656859710248e-01
2.36000000e-01	1.944562024258e+00	-4.676307665404e-01
2.37000000e-01	1.944093421288e+00	-4.695750944252e-01
2.38000000e-01	1.943622874225e+00	-4.715189527349e-01
2.39000000e-01	1.943150383540e+00	-4.734623395257e-01
2.40000000e-01	1.942675949704e+00	-4.754052528543e-01
2.41000000e-01	1.942199573193e+00	-4.773476907776e-01
2.42000000e-01	1.941721254482e+00	-4.792896513533e-01
2.43000000e-01	1.941240994050e+00	-4.812311326393e-01
2.44000000e-01	1.940758792377e+00	-4.831721326943e-01
2.45000000e-01	1.940274649945e+00	-4.851126495771e-01
2.46000000e-01	1.939788567239e+00	-4.870526813474e-01
2.47000000e-01	1.939300544745e+00	-4.889922260650e-01
2.48000000e-01	1.938810582950e+00	-4.909312817905e-01
2.49000000e-01	1.938318682345e+00	-4.928698465847e-01
2.50000000e-01	1.937824843421e+00	-4.948079185090e-01
2.51000000e-01	1.937329066673e+00	-4.967454956256e-01
2.52000000e-01	1.936831352596e+00	-4.986825759966e-01
2.53000000e-01	1.936331701687e+00	-5.006191576851e-01
2.54000000e-01	1.935830114447e+00	-5.025552387545e-01
2.55000000e-01	1.935326591377e+00	-5.044908172688e-01
2.56000000e-01	1.934821132981e+00	-5.064258912922e-01
2.57000000e-01	1.934313739763e+00	-5.083604588898e-01
2.58000000e-01	1.933804412232e+00	-5.102945181269e-01
2.59000000e-01	1.933293150897e+00	-5.122280670696e-01
2.60000000e-01	1.932779956269e+00	-5.141611037843e-01
2.61000000e-01	1.932264828861e+00	-5.160936263379e-01
2.62000000e-01	1.931747769188e+00	-5.180256327979e-01
2.63000000e-01	1.931228777768e+00	-5.199571212324e-01
2.64000000e-01	1.930707855119e+00	-5.218880897097e-01
2.65000000e-01	1.930185001763e+00	-5.238185362990e-01
2.66000000e-01	1.929660218221e+00	-5.257484590699e-01
2.67000000e-01	1.929133505020e+00	-5.276778560923e-01
2.68000000e-01	1.928604862685e+00	-5.296067254369e-01
2.69000000e-01	1.928074291745e+00	-5.315350651748e-01
2.70000000e-01	1.927541792732e+00	-5.334628733777e-01
2.71000000e-01	1.927007366176e+00	-5.353901481177e-01
2.72000000e-01	1.926471012614e+00	-5.373168874677e-01
2.73000000e-01	1.925932732581e+00	-5.392430895008e-01
2.74000000e-01	1.925392526615e+00	-5.411687522909e-01
2.75000000e-01	1.924850395256e+00	-5.430938739122e-01
2.76000000e-01	1.924306339048e+00	-5.450184524398e-01
2.77000000e-01	1.923760358533e+00	-5.469424859489e-01
2.78000000e-01	1.923212454258e+00	-5.488659725156e-01
2.79000000e-01	1.922662626771e+00	-5.507889102163e-01
2.80000000e-01	1.922110876622e+00	-5.527112971282e-01
2.81000000e-01	1.921557204361e+00	-5.546331313289e-01
2.82000000e-01	1.921001610544e+00	-5.565544108964e-01
2.83000000e-01	1.920444095725e+00	-5.584751339096e-01
2.84000000e-01	1.919884660462e+00	-5.603952984477e-01
2.85000000e-01	1.919323305315e+00	-5.623149025906e-01
2.86000000e-01	1.918760030844e+00	-5.642339444186e-01
2.87000000e-01	1.918194837614e+00	-5.661524220127e-01
2.88000000e-01	1.917627726189e+00	-5.680703334544e-01
2.89000000e-01	1.917058697136e+00	-5.699876768259e-01
2.90000000e-01	1.916487751025e+00	-5.719044502097e-01
2.91000000e-01	1.915914888427e+00	-5.738206516891e-01
2.92000000e-01	1.915340109913e+00	-5.757362793479e-01
2.93000000e-01	1.914763416060e+00	-5.776513312705e-01
2.94000000e-01	1.914184807443e+00	-5.795658055418e-01
2.95000000e-01	1.913604284642e+00	-5.814797002473e-01
2.96000000e-01	1.913021848237e+00	-5.833930134732e-01
2.97000000e-01	1.912437498810e+00	-5.853057433061e-01
2.98000000e-01	1.911851236945e+00	-5.872178878333e-01
2.99000000e-01	1.911263063230e+00	-5.891294451427e-01
3.00000000e-01	1.910672978251e+00	-5.910404133227e-01
3.01000000e-01	1.910080982600e+00	-5.929507904623e-01
3.02000000e-01	1.909487076868e+00	-5.948605746512e-01
3.03000000e-01	1.908891261649e+00	-5.967697639795e-01
3.04000000e-01	1.908293537539e+00	-5.986783565382e-01
3.05000000e-01	1.907693905135e+00	-6.005863504185e-01
3.06000000e-01	1.907092365038e+00	-6.024937437126e-01
3.07000000e-01	1.906488917849e+00	-6.044005345129e-01
3.08000000e-01	1.905883564171e+00	-6.063067209128e-01
3.09000000e-01	1.905276304609e+00	-6.082123010060e-01
3.10000000e-01	1.904667139771e+00	-6.101172728869e-01
3.11000000e-01	1.904056070267e+00	-6.120216346506e-01
3.12000000e-01	1.903443096706e+00	-6.139253843927e-01
3.13000000e-01	1.902828219703e+00	-6.158285202095e-01
3.14000000e-01	1.902211439871e+00	-6.177310401979e-01
3.15000000e-01	1.901592757828e+00	-6.196329424552e-01
3.16000000e-01	1.900972174193e+00	-6.215342250797e-01
3.17000000e-01	1.900349689585e+00	-6.234348861699e-01
3.18000000e-01	1.899725304628e+00	-6.253349238254e-01
3.19000000e-01	1.899099019946e+00	-6.272343361459e-01
3.20000000e-01	1.898470836165e+00	-6.291331212322e-01
3.21000000e-01	1.897840753913e+00	-6.310312771855e-01
3.22000000e-01	1.897208773821e+00	-6.329288021074e-01
3.23000000e-01	1.896574896520e+00	-6.348256941007e-01
3.24000000e-01	1.895939122644e+00	-6.367219512683e-01
3.25000000e-01	1.895301452830e+00	-6.386175717140e-01
3.26000000e-01	1.894661887714e+00	-6.405125535422e-01
3.27000000e-01	1.894020427936e+00	-6.424068948579e-01
3.28000000e-01	1.893377074138e+00	-6.443005937667e-01
3.29000000e-01	1.892731826963e+00	-6.461936483750e-01
3.30000000e-01	1.892084687057e+00	-6.480860567897e-01
3.31000000e-01	1.891435655066e+00	-6.499778171184e-01
3.32000000e-01	1.890784731639e+00	-6.518689274694e-01
3.33000000e-01	1.890131917428e+00	-6.537593859515e-01
3.34000000e-01	1.889477213085e+00	-6.556491906742e-01
3.35000000e-01	1.888820619265e+00	-6.575383397478e-01
3.36000000e-01	1.888162136625e+00	-6.594268312831e-01
3.37000000e-01	1.887501765823e+00	-6.613146633917e-01
3.38000000e-01	1.886839507519e+00	-6.632018341856e-01
3.39000000e-01	1.886175362375e+00	-6.650883417778e-01
3.40000000e-01	1.885509331057e+00	-6.669741842816e-01
3.41000000e-01	1.884841414229e+00	-6.688593598114e-01
3.42000000e-01	1.884171612560e+00	-6.707438664818e-01
3.43000000e-01	1.883499926720e+00	-6.726277024084e-01
3.44000000e-01	1.882826357379e+00	-6.745108657074e-01
3.45000000e-01	1.882150905213e+00	-6.763933544956e-01
3.46000000e-01	1.881473570896e+00	-6.782751668905e-01
3.47000000e-01	1.880794355105e+00	-6.801563010102e-01
3.48000000e-01	1.880113258521e+00	-6.820367549737e-01
3.49000000e-01	1.879430281823e+00	-6.839165269006e-01
3.50000000e-01	1.878745425695e+00	-6.857956149109e-01
3.51000000e-01	1.878058690822e+00	-6.876740171257e-01
3.52000000e-01	1.877370077890e+00	-6.895517316665e-01
3.53000000e-01	1.876679587588e+00	-6.914287566557e-01
3.54000000e-01	1.875987220607e+00	-6.933050902161e-01
3.55000000e-01	1.875292977639e+00	-6.951807304716e-01
3.56000000e-01	1.874596859378e+00	-6.970556755463e-01
3.57000000e-01	1.873898866520e+00	-6.989299235655e-01
3.58000000e-01	1.873198999764e+00	-7.008034726547e-01
3.59000000e-01	1.872497259808e+00	-7.026763209406e-01
3.60000000e-01	1.871793647356e+00	-7.045484665502e-01
3.61000000e-01	1.871088163110e+00	-7.064199076114e-01
3.62000000e-01	1.870380807776e+00	-7.082906422527e-01
3.63000000e-01	1.869671582062e+00	-7.101606686035e-01
3.64000000e-01	1.868960486676e+00	-7.120299847936e-01
3.65000000e-01	1.868247522329e+00	-7.138985889538e-01
3.66000000e-01	1.867532689736e+00	-7.157664792155e-01
3.67000000e-01	1.866815989610e+00	-7.176336537108e-01
