# Układ: x' = x(y-1),  y' = 3x - 2y + x^2 - 2y^2
# IC: x0=0.1, y0=0, dt=1.000e-03, nsteps=10000
# t	x(t)	y(t)
0.00000000e+00	1.000000000000e-01	0.000000000000e+00
1.00000000e-03	1.000010678577e-01	2.135539032030e-03
2.00000000e-03	1.000042707251e-01	4.270019099614e-03
3.00000000e-03	1.000096075424e-01	6.403438594907e-03
4.00000000e-03	1.000170772482e-01	8.535795913286e-03
5.00000000e-03	1.000266787796e-01	1.066708945335e-02
6.00000000e-03	1.000384110720e-01	1.279731761690e-02
7.00000000e-03	1.000522730592e-01	1.492647880897e-02
8.00000000e-03	1.000682636734e-01	1.705457143780e-02
9.00000000e-03	1.000863818453e-01	1.918159391484e-02
1.00000000e-02	1.001066265040e-01	2.130754465475e-02
1.10000000e-02	1.001289965769e-01	2.343242207541e-02
1.20000000e-02	1.001534909899e-01	2.555622459790e-02
1.30000000e-02	1.001801086672e-01	2.767895064651e-02
1.40000000e-02	1.002088485318e-01	2.980059864874e-02
1.50000000e-02	1.002397095047e-01	3.192116703528e-02
1.60000000e-02	1.002726905055e-01	3.404065424006e-02
1.70000000e-02	1.003077904522e-01	3.615905870019e-02
1.80000000e-02	1.003450082614e-01	3.827637885600e-02
1.90000000e-02	1.003843428480e-01	4.039261315100e-02
2.00000000e-02	1.004257931253e-01	4.250776003195e-02
2.10000000e-02	1.004693580051e-01	4.462181794878e-02
2.20000000e-02	1.005150363977e-01	4.673478535464e-02
2.30000000e-02	1.005628272118e-01	4.884666070589e-02
2.40000000e-02	1.006127293545e-01	5.095744246209e-02
2.50000000e-02	1.006647417316e-01	5.306712908602e-02
2.60000000e-02	1.007188632472e-01	5.517571904366e-02
2.70000000e-02	1.007750928037e-01	5.728321080421e-02
2.80000000e-02	1.008334293022e-01	5.938960284007e-02
2.90000000e-02	1.008938716423e-01	6.149489362686e-02
3.00000000e-02	1.009564187219e-01	6.359908164342e-02
3.10000000e-02	1.010210694375e-01	6.570216537179e-02
3.20000000e-02	1.010878226840e-01	6.780414329725e-02
3.30000000e-02	1.011566773549e-01	6.990501390827e-02
3.40000000e-02	1.012276323422e-01	7.200477569658e-02
3.50000000e-02	1.013006865362e-01	7.410342715709e-02
3.60000000e-02	1.013758388259e-01	7.620096678798e-02
3.70000000e-02	1.014530880987e-01	7.829739309061e-02
3.80000000e-02	1.015324332405e-01	8.039270456962e-02
3.90000000e-02	1.016138731357e-01	8.248689973284e-02
4.00000000e-02	1.016974066674e-01	8.457997709137e-02
4.10000000e-02	1.017830327168e-01	8.667193515952e-02
4.20000000e-02	1.018707501641e-01	8.876277245485e-02
4.30000000e-02	1.019605578876e-01	9.085248749817e-02
4.40000000e-02	1.020524547645e-01	9.294107881354e-02
4.50000000e-02	1.021464396702e-01	9.502854492825e-02
4.60000000e-02	1.022425114788e-01	9.711488437287e-02
4.70000000e-02	1.023406690629e-01	9.920009568121e-02
4.80000000e-02	1.024409112936e-01	1.012841773903e-01
4.90000000e-02	1.025432370407e-01	1.033671280406e-01
5.00000000e-02	1.026476451722e-01	1.054489461756e-01
5.10000000e-02	1.027541345550e-01	1.075296303422e-01
5.20000000e-02	1.028627040544e-01	1.096091790905e-01
5.30000000e-02	1.029733525342e-01	1.116875909741e-01
5.40000000e-02	1.030860788569e-01	1.137648645496e-01
5.50000000e-02	1.032008818834e-01	1.158409983770e-01
5.60000000e-02	1.033177604733e-01	1.179159910196e-01
5.70000000e-02	1.034367134846e-01	1.199898410441e-01
5.80000000e-02	1.035577397740e-01	1.220625470202e-01
5.90000000e-02	1.036808381968e-01	1.241341075213e-01
6.00000000e-02	1.038060076068e-01	1.262045211238e-01
6.10000000e-02	1.039332468563e-01	1.282737864075e-01
6.20000000e-02	1.040625547963e-01	1.303419019557e-01
6.30000000e-02	1.041939302765e-01	1.324088663548e-01
6.40000000e-02	1.043273721449e-01	1.344746781946e-01
6.50000000e-02	1.044628792482e-01	1.365393360683e-01
6.60000000e-02	1.046004504319e-01	1.386028385724e-01
6.70000000e-02	1.047400845398e-01	1.406651843066e-01
6.80000000e-02	1.048817804144e-01	1.427263718743e-01
6.90000000e-02	1.050255368970e-01	1.447863998819e-01
7.00000000e-02	1.051713528272e-01	1.468452669394e-01
7.10000000e-02	1.053192270434e-01	1.489029716601e-01
7.20000000e-02	1.054691583826e-01	1.509595126607e-01
7.30000000e-02	1.056211456804e-01	1.530148885611e-01
7.40000000e-02	1.057751877709e-01	1.550690979850e-01
7.50000000e-02	1.059312834871e-01	1.571221395591e-01
7.60000000e-02	1.060894316603e-01	1.591740119136e-01
7.70000000e-02	1.062496311207e-01	1.612247136823e-01
7.80000000e-02	1.064118806970e-01	1.632742435022e-01
7.90000000e-02	1.065761792166e-01	1.653226000138e-01
8.00000000e-02	1.067425255055e-01	1.673697818611e-01
8.10000000e-02	1.069109183883e-01	1.694157876913e-01
8.20000000e-02	1.070813566884e-01	1.714606161555e-01
8.30000000e-02	1.072538392277e-01	1.735042659077e-01
8.40000000e-02	1.074283648269e-01	1.755467356058e-01
8.50000000e-02	1.076049323051e-01	1.775880239109e-01
8.60000000e-02	1.077835404805e-01	1.796281294878e-01
8.70000000e-02	1.079641881694e-01	1.816670510045e-01
8.80000000e-02	1.081468741873e-01	1.837047871327e-01
8.90000000e-02	1.083315973481e-01	1.857413365475e-01
9.00000000e-02	1.085183564644e-01	1.877766979277e-01
9.10000000e-02	1.087071503475e-01	1.898108699553e-01
9.20000000e-02	1.088979778074e-01	1.918438513160e-01
9.30000000e-02	1.090908376528e-01	1.938756406990e-01
9.40000000e-02	1.092857286911e-01	1.959062367971e-01
9.50000000e-02	1.094826497282e-01	1.979356383066e-01
9.60000000e-02	1.096815995691e-01	1.999638439273e-01
9.70000000e-02	1.098825770170e-01	2.019908523627e-01
9.80000000e-02	1.100855808743e-01	2.040166623196e-01
9.90000000e-02	1.102906099417e-01	2.060412725087e-01
1.00000000e-01	1.104976630190e-01	2.080646816441e-01
1.01000000e-01	1.107067389043e-01	2.100868884435e-01
1.02000000e-01	1.109178363946e-01	2.121078916283e-01
1.03000000e-01	1.111309542859e-01	2.141276899235e-01
1.04000000e-01	1.113460913724e-01	2.161462820577e-01
1.05000000e-01	1.115632464475e-01	2.181636667630e-01
1.06000000e-01	1.117824183031e-01	2.201798427753e-01
1.07000000e-01	1.120036057298e-01	2.221948088342e-01
1.08000000e-01	1.122268075170e-01	2.242085636828e-01
1.09000000e-01	1.124520224530e-01	2.262211060680e-01
1.10000000e-01	1.126792493246e-01	2.282324347403e-01
1.11000000e-01	1.129084869175e-01	2.302425484540e-01
1.12000000e-01	1.131397340161e-01	2.322514459668e-01
1.13000000e-01	1.133729894036e-01	2.342591260405e-01
1.14000000e-01	1.136082518619e-01	2.362655874404e-01
1.15000000e-01	1.138455201718e-01	2.382708289356e-01
1.16000000e-01	1.140847931128e-01	2.402748492988e-01
1.17000000e-01	1.143260694630e-01	2.422776473067e-01
1.18000000e-01	1.145693479995e-01	2.442792217396e-01
1.19000000e-01	1.148146274982e-01	2.462795713815e-01
1.20000000e-01	1.150619067336e-01	2.482786950203e-01
1.21000000e-01	1.153111844792e-01	2.502765914477e-01
1.22000000e-01	1.155624595070e-01	2.522732594591e-01
1.23000000e-01	1.158157305882e-01	2.542686978538e-01
1.24000000e-01	1.160709964925e-01	2.562629054348e-01
1.25000000e-01	1.163282559884e-01	2.582558810092e-01
1.26000000e-01	1.165875078434e-01	2.602476233876e-01
1.27000000e-01	1.168487508237e-01	2.622381313847e-01
1.28000000e-01	1.171119836943e-01	2.642274038189e-01
1.29000000e-01	1.173772052191e-01	2.662154395127e-01
1.30000000e-01	1.176444141607e-01	2.682022372922e-01
1.31000000e-01	1.179136092807e-01	2.701877959876e-01
1.32000000e-01	1.181847893393e-01	2.721721144329e-01
1.33000000e-01	1.184579530957e-01	2.741551914661e-01
1.34000000e-01	1.187330993080e-01	2.761370259291e-01
1.35000000e-01	1.190102267330e-01	2.781176166677e-01
1.36000000e-01	1.192893341264e-01	2.800969625317e-01
1.37000000e-01	1.195704202427e-01	2.820750623749e-01
1.38000000e-01	1.198534838354e-01	2.840519150550e-01
1.39000000e-01	1.201385236567e-01	2.860275194338e-01
1.40000000e-01	1.204255384578e-01	2.880018743768e-01
1.41000000e-01	1.207145269886e-01	2.899749787539e-01
1.42000000e-01	1.210054879981e-01	2.919468314389e-01
1.43000000e-01	1.212984202339e-01	2.939174313094e-01
1.44000000e-01	1.215933224427e-01	2.958867772474e-01
1.45000000e-01	1.218901933701e-01	2.978548681386e-01
1.46000000e-01	1.221890317603e-01	2.998217028732e-01
1.47000000e-01	1.224898363567e-01	3.017872803451e-01
1.48000000e-01	1.227926059015e-01	3.037515994525e-01
1.49000000e-01	1.230973391358e-01	3.057146590976e-01
1.50000000e-01	1.234040347995e-01	3.076764581867e-01
1.51000000e-01	1.237126916316e-01	3.096369956304e-01
1.52000000e-01	1.240233083699e-01	3.115962703433e-01
1.53000000e-01	1.243358837510e-01	3.135542812442e-01
1.54000000e-01	1.246504165107e-01	3.155110272561e-01
1.55000000e-01	1.249669053836e-01	3.174665073060e-01
1.56000000e-01	1.252853491030e-01	3.194207203254e-01
1.57000000e-01	1.256057464015e-01	3.213736652497e-01
1.58000000e-01	1.259280960105e-01	3.233253410188e-01
1.59000000e-01	1.262523966602e-01	3.252757465766e-01
1.60000000e-01	1.265786470799e-01	3.272248808713e-01
1.61000000e-01	1.269068459978e-01	3.291727428555e-01
1.62000000e-01	1.272369921411e-01	3.311193314859e-01
1.63000000e-01	1.275690842360e-01	3.330646457235e-01
1.64000000e-01	1.279031210074e-01	3.350086845337e-01
1.65000000e-01	1.282391011795e-01	3.369514468861e-01
1.66000000e-01	1.285770234754e-01	3.388929317547e-01
1.67000000e-01	1.289168866169e-01	3.408331381177e-01
1.68000000e-01	1.292586893251e-01	3.427720649580e-01
1.69000000e-01	1.296024303200e-01	3.447097112623e-01
1.70000000e-01	1.299481083204e-01	3.466460760222e-01
1.71000000e-01	1.302957220445e-01	3.485811582334e-01
1.72000000e-01	1.306452702091e-01	3.505149568960e-01
1.73000000e-01	1.309967515301e-01	3.524474710147e-01
1.74000000e-01	1.313501647226e-01	3.543786995984e-01
1.75000000e-01	1.317055085005e-01	3.563086416607e-01
1.76000000e-01	1.320627815767e-01	3.582372962193e-01
1.77000000e-01	1.324219826634e-01	3.601646622968e-01
1.78000000e-01	1.327831104715e-01	3.620907389198e-01
1.79000000e-01	1.331461637111e-01	3.640155251199e-01
1.80000000e-01	1.335111410913e-01	3.659390199328e-01
1.81000000e-01	1.338780413202e-01	3.678612223990e-01
1.82000000e-01	1.342468631050e-01	3.697821315633e-01
1.83000000e-01	1.346176051519e-01	3.717017464751e-01
1.84000000e-01	1.349902661662e-01	3.736200661887e-01
1.85000000e-01	1.353648448522e-01	3.755370897624e-01
1.86000000e-01	1.357413399134e-01	3.774528162596e-01
1.87000000e-01	1.361197500521e-01	3.793672447480e-01
1.88000000e-01	1.365000739699e-01	3.812803743001e-01
1.89000000e-01	1.368823103674e-01	3.831922039928e-01
1.90000000e-01	1.372664579443e-01	3.851027329080e-01
1.91000000e-01	1.376525153993e-01	3.870119601320e-01
1.92000000e-01	1.380404814303e-01	3.889198847557e-01
1.93000000e-01	1.384303547343e-01	3.908265058750e-01
1.94000000e-01	1.388221340073e-01	3.927318225902e-01
1.95000000e-01	1.392158179444e-01	3.946358340065e-01
1.96000000e-01	1.396114052399e-01	3.965385392338e-01
1.97000000e-01	1.400088945872e-01	3.984399373867e-01
1.98000000e-01	1.404082846787e-01	4.003400275846e-01
1.99000000e-01	1.408095742061e-01	4.022388089517e-01
2.00000000e-01	1.412127618600e-01	4.041362806168e-01
2.01000000e-01	1.416178463304e-01	4.060324417138e-01
2.02000000e-01	1.420248263063e-01	4.079272913812e-01
2.03000000e-01	1.424337004758e-01	4.098208287624e-01
2.04000000e-01	1.428444675261e-01	4.117130530057e-01
2.05000000e-01	1.432571261438e-01	4.136039632641e-01
2.06000000e-01	1.436716750144e-01	4.154935586957e-01
2.07000000e-01	1.440881128226e-01	4.173818384633e-01
2.08000000e-01	1.445064382525e-01	4.192688017347e-01
2.09000000e-01	1.449266499870e-01	4.211544476826e-01
2.10000000e-01	1.453487467085e-01	4.230387754847e-01
2.11000000e-01	1.457727270983e-01	4.249217843235e-01
2.12000000e-01	1.461985898372e-01	4.268034733865e-01
2.13000000e-01	1.466263336049e-01	4.286838418663e-01
2.14000000e-01	1.470559570804e-01	4.305628889605e-01
2.15000000e-01	1.474874589421e-01	4.324406138714e-01
2.16000000e-01	1.479208378672e-01	4.343170158067e-01
2.17000000e-01	1.483560925324e-01	4.361920939789e-01
2.18000000e-01	1.487932216136e-01	4.380658476058e-01
2.19000000e-01	1.492322237859e-01	4.399382759099e-01
2.20000000e-01	1.496730977234e-01	4.418093781190e-01
2.21000000e-01	1.501158420998e-01	4.436791534661e-01
2.22000000e-01	1.505604555878e-01	4.455476011891e-01
2.23000000e-01	1.510069368594e-01	4.474147205312e-01
2.24000000e-01	1.514552845858e-01	4.492805107405e-01
2.25000000e-01	1.519054974376e-01	4.511449710706e-01
2.26000000e-01	1.523575740844e-01	4.530081007799e-01
2.27000000e-01	1.528115131954e-01	4.548698991323e-01
2.28000000e-01	1.532673134387e-01	4.567303653967e-01
2.29000000e-01	1.537249734819e-01	4.585894988473e-01
2.30000000e-01	1.541844919919e-01	4.604472987635e-01
2.31000000e-01	1.546458676347e-01	4.623037644300e-01
2.32000000e-01	1.551090990757e-01	4.641588951367e-01
2.33000000e-01	1.555741849797e-01	4.660126901788e-01
2.34000000e-01	1.560411240106e-01	4.678651488569e-01
2.35000000e-01	1.565099148317e-01	4.697162704765e-01
2.36000000e-01	1.569805561057e-01	4.715660543490e-01
2.37000000e-01	1.574530464943e-01	4.734144997908e-01
2.38000000e-01	1.579273846589e-01	4.752616061236e-01
2.39000000e-01	1.584035692600e-01	4.771073726746e-01
2.40000000e-01	1.588815989574e-01	4.789517987765e-01
2.41000000e-01	1.593614724105e-01	4.807948837670e-01
2.42000000e-01	1.598431882777e-01	4.826366269897e-01
2.43000000e-01	1.603267452170e-01	4.844770277933e-01
2.44000000e-01	1.608121418856e-01	4.863160855319e-01
2.45000000e-01	1.612993769401e-01	4.881537995654e-01
2.46000000e-01	1.617884490366e-01	4.899901692589e-01
2.47000000e-01	1.622793568303e-01	4.918251939830e-01
2.48000000e-01	1.627720989760e-01	4.936588731139e-01
2.49000000e-01	1.632666741278e-01	4.954912060332e-01
2.50000000e-01	1.637630809392e-01	4.973221921283e-01
2.51000000e-01	1.642613180629e-01	4.991518307917e-01
2.52000000e-01	1.647613841514e-01	5.009801214219e-01
2.53000000e-01	1.652632778562e-01	5.028070634228e-01
2.54000000e-01	1.657669978285e-01	5.046326562038e-01
2.55000000e-01	1.662725427187e-01	5.064568991800e-01
2.56000000e-01	1.667799111767e-01	5.082797917723e-01
2.57000000e-01	1.672891018519e-01	5.101013334069e-01
2.58000000e-01	1.678001133930e-01	5.119215235159e-01
2.59000000e-01	1.683129444483e-01	5.137403615370e-01
2.60000000e-01	1.688275936652e-01	5.155578469136e-01
2.61000000e-01	1.693440596910e-01	5.173739790948e-01
2.62000000e-01	1.698623411722e-01	5.191887575354e-01
2.63000000e-01	1.703824367547e-01	5.210021816959e-01
2.64000000e-01	1.709043450840e-01	5.228142510426e-01
2.65000000e-01	1.714280648050e-01	5.246249650476e-01
2.66000000e-01	1.719535945621e-01	5.264343231887e-01
2.67000000e-01	1.724809329992e-01	5.282423249495e-01
2.68000000e-01	1.730100787597e-01	5.300489698196e-01
2.69000000e-01	1.735410304864e-01	5.318542572940e-01
2.70000000e-01	1.740737868217e-01	5.336581868740e-01
2.71000000e-01	1.746083464074e-01	5.354607580665e-01
2.72000000e-01	1.751447078848e-01	5.372619703843e-01
2.73000000e-01	1.756828698950e-01	5.390618233461e-01
2.74000000e-01	1.762228310783e-01	5.408603164765e-01
2.75000000e-01	1.767645900745e-01	5.426574493062e-01
2.76000000e-01	1.773081455233e-01	5.444532213715e-01
2.77000000e-01	1.778534960635e-01	5.462476322148e-01
2.78000000e-01	1.784006403338e-01	5.480406813845e-01
2.79000000e-01	1.789495769723e-01	5.498323684350e-01
2.80000000e-01	1.795003046165e-01	5.516226929266e-01
2.81000000e-01	1.800528219038e-01	5.534116544257e-01
2.82000000e-01	1.806071274709e-01	5.551992525046e-01
2.83000000e-01	1.811632199542e-01	5.569854867418e-01
2.84000000e-01	1.817210979896e-01	5.587703567217e-01
2.85000000e-01	1.822807602127e-01	5.605538620348e-01
2.86000000e-01	1.828422052587e-01	5.623360022778e-01
2.87000000e-01	1.834054317621e-01	5.641167770535e-01
2.88000000e-01	1.839704383575e-01	5.658961859705e-01
2.89000000e-01	1.845372236787e-01	5.676742286440e-01
2.90000000e-01	1.851057863592e-01	5.694509046950e-01
2.91000000e-01	1.856761250324e-01	5.712262137508e-01
2.92000000e-01	1.862482383309e-01	5.730001554449e-01
2.93000000e-01	1.868221248874e-01	5.747727294168e-01
2.94000000e-01	1.873977833337e-01	5.765439353125e-01
2.95000000e-01	1.879752123018e-01	5.783137727840e-01
2.96000000e-01	1.885544104231e-01	5.800822414896e-01
2.97000000e-01	1.891353763285e-01	5.818493410939e-01
2.98000000e-01	1.897181086488e-01	5.836150712677e-01
2.99000000e-01	1.903026060144e-01	5.853794316881e-01
3.00000000e-01	1.908888670555e-01	5.871424220385e-01
3.01000000e-01	1.914768904017e-01	5.889040420087e-01
3.02000000e-01	1.920666746826e-01	5.906642912947e-01
3.03000000e-01	1.926582185273e-01	5.924231695988e-01
3.04000000e-01	1.932515205647e-01	5.941806766298e-01
3.05000000e-01	1.938465794234e-01	5.959368121029e-01
3.06000000e-01	1.944433937316e-01	5.976915757396e-01
3.07000000e-01	1.950419621175e-01	5.994449672677e-01
3.08000000e-01	1.956422832087e-01	6.011969864216e-01
3.09000000e-01	1.962443556328e-01	6.029476329420e-01
3.10000000e-01	1.968481780169e-01	6.046969065762e-01
3.11000000e-01	1.974537489882e-01	6.064448070779e-01
3.12000000e-01	1.980610671733e-01	6.081913342071e-01
3.13000000e-01	1.986701311988e-01	6.099364877306e-01
3.14000000e-01	1.992809396908e-01	6.116802674215e-01
3.15000000e-01	1.998934912756e-01	6.134226730594e-01
3.16000000e-01	2.005077845789e-01	6.151637044306e-01
3.17000000e-01	2.011238182263e-01	6.169033613279e-01
3.18000000e-01	2.017415908433e-01	6.186416435505e-01
3.19000000e-01	2.023611010551e-01	6.203785509045e-01
3.20000000e-01	2.029823474867e-01	6.221140832022e-01
3.21000000e-01	2.036053287631e-01	6.238482402629e-01
3.22000000e-01	2.042300435088e-01	6.255810219123e-01
3.23000000e-01	2.048564903484e-01	6.273124279828e-01
3.24000000e-01	2.054846679062e-01	6.290424583134e-01
3.25000000e-01	2.061145748064e-01	6.307711127499e-01
3.26000000e-01	2.067462096730e-01	6.324983911446e-01
3.27000000e-01	2.073795711299e-01	6.342242933567e-01
3.28000000e-01	2.080146578009e-01	6.359488192521e-01
3.29000000e-01	2.086514683096e-01	6.376719687032e-01
3.30000000e-01	2.092900012795e-01	6.393937415893e-01
3.31000000e-01	2.099302553339e-01	6.411141377966e-01
3.32000000e-01	2.105722290962e-01	6.428331572179e-01
3.33000000e-01	2.112159211894e-01	6.445507997527e-01
3.34000000e-01	2.118613302367e-01	6.462670653075e-01
3.35000000e-01	2.125084548610e-01	6.479819537956e-01
3.36000000e-01	2.131572936852e-01	6.496954651371e-01
3.37000000e-01	2.138078453322e-01	6.514075992588e-01
3.38000000e-01	2.144601084246e-01	6.531183560945e-01
3.39000000e-01	2.151140815853e-01	6.548277355849e-01
3.40000000e-01	2.157697634367e-01	6.565357376776e-01
3.41000000e-01	2.164271526015e-01	6.582423623270e-01
3.42000000e-01	2.170862477022e-01	6.599476094946e-01
3.43000000e-01	2.177470473613e-01	6.616514791485e-01
3.44000000e-01	2.184095502013e-01	6.633539712640e-01
3.45000000e-01	2.190737548446e-01	6.650550858235e-01
3.46000000e-01	2.197396599137e-01	6.667548228160e-01
3.47000000e-01	2.204072640311e-01	6.684531822378e-01
3.48000000e-01	2.210765658190e-01	6.701501640921e-01
3.49000000e-01	2.217475639001e-01	6.718457683891e-01
3.50000000e-01	2.224202568966e-01	6.735399951459e-01
3.51000000e-01	2.230946434312e-01	6.752328443870e-01
3.52000000e-01	2.237707221262e-01	6.769243161437e-01
3.53000000e-01	2.244484916043e-01	6.786144104544e-01
3.54000000e-01	2.251279504880e-01	6.803031273647e-01
3.55000000e-01	2.258090973999e-01	6.819904669271e-01
3.56000000e-01	2.264919309628e-01	6.836764292014e-01
3.57000000e-01	2.271764497993e-01	6.853610142545e-01
3.58000000e-01	2.278626525322e-01	6.870442221605e-01
3.59000000e-01	2.285505377846e-01	6.887260530005e-01
3.60000000e-01	2.292401041792e-01	6.904065068629e-01
3.61000000e-01	2.299313503393e-01	6.920855838432e-01
3.62000000e-01	2.306242748880e-01	6.937632840442e-01
3.63000000e-01	2.313188764485e-01	6.954396075758e-01
3.64000000e-01	2.320151536443e-01	6.971145545554e-01
3.65000000e-01	2.327131050988e-01	6.987881251073e-01
3.66000000e-01	2.334127294358e-01	7.004603193631e-01
3.67000000e-01	2.341140252788e-01	7.021311374620e-01
3.68000000e-01	2.348169912520e-01	7.038005795502e-01
3.69000000e-01	2.355216259793e-01	7.054686457812e-01
3.70000000e-01	2.362279280850e-01	7.071353363159e-01
3.71000000e-01	2.369358961934e-01	7.088006513225e-01
3.72000000e-01	2.376455289292e-01	7.104645909766e-01
3.73000000e-01	2.383568249170e-01	7.121271554610e-01
3.74000000e-01	2.390697827818e-01	7.137883449660e-01
