# Układ: x' = x(y-1),  y' = 3x - 2y + x^2 - 2y^2
# IC: x0=2.5, y0=0, dt=1.000e-03, nsteps=10000
# t	x(t)	y(t)
0.00000000e+00	2.500000000000e+00	0.000000000000e+00
1.00000000e-03	2.464485876456e+00	2.000000000000e-03
2.00000000e-03	2.432758412229e+00	4.000000000000e-03
3.00000000e-03	2.404200784877e+00	6.000000000000e-03
4.00000000e-03	2.378329974993e+00	8.000000000000e-03
5.00000000e-03	2.354761309649e+00	1.000000000000e-02
6.00000000e-03	2.333183913145e+00	1.200000000000e-02
7.00000000e-03	2.313343294949e+00	1.400000000000e-02
8.00000000e-03	2.295028736447e+00	1.600000000000e-02
9.00000000e-03	2.278063982114e+00	1.800000000000e-02
1.00000000e-02	2.262300254593e+00	2.000000000000e-02
1.10000000e-02	2.247610935164e+00	2.200000000000e-02
1.20000000e-02	2.233887458013e+00	2.400000000000e-02
1.30000000e-02	2.221036102738e+00	2.600000000000e-02
1.40000000e-02	2.208975460818e+00	2.800000000000e-02
1.50000000e-02	2.197634414195e+00	3.000000000000e-02
1.60000000e-02	2.186950507484e+00	3.200000000000e-02
1.70000000e-02	2.176868625960e+00	3.400000000000e-02
1.80000000e-02	2.167339913428e+00	3.600000000000e-02
1.90000000e-02	2.158320879955e+00	3.800000000000e-02
2.00000000e-02	2.149772661180e+00	4.000000000000e-02
2.10000000e-02	2.141660399548e+00	4.200000000000e-02
2.20000000e-02	2.133952724351e+00	4.400000000000e-02
2.30000000e-02	2.126621312387e+00	4.600000000000e-02
2.40000000e-02	2.119640514801e+00	4.800000000000e-02
2.50000000e-02	2.112987038608e+00	5.000000000000e-02
2.60000000e-02	2.106639673630e+00	5.200000000000e-02
2.70000000e-02	2.100579057356e+00	5.400000000000e-02
2.80000000e-02	2.094787471635e+00	5.600000000000e-02
2.90000000e-02	2.089248666208e+00	5.800000000000e-02
3.00000000e-02	2.083947704979e+00	6.000000000000e-02
3.10000000e-02	2.078870831622e+00	6.200000000000e-02
3.20000000e-02	2.074005351708e+00	6.400000000000e-02
3.30000000e-02	2.069339528992e+00	6.600000000000e-02
3.40000000e-02	2.064862493886e+00	6.800000000000e-02
3.50000000e-02	2.060564162464e+00	7.000000000000e-02
3.60000000e-02	2.056435164569e+00	7.200000000000e-02
3.70000000e-02	2.052466779859e+00	7.400000000000e-02
3.80000000e-02	2.048650880752e+00	7.600000000000e-02
3.90000000e-02	2.044979881415e+00	7.800000000000e-02
4.00000000e-02	2.041446692051e+00	8.000000000000e-02
4.10000000e-02	2.038044677834e+00	8.200000000000e-02
4.20000000e-02	2.034767621957e+00	8.400000000000e-02
4.30000000e-02	2.031609692302e+00	8.600000000000e-02
4.40000000e-02	2.028565411316e+00	8.800000000000e-02
4.50000000e-02	2.025629628746e+00	9.000000000000e-02
4.60000000e-02	2.022797496904e+00	9.200000000000e-02
4.70000000e-02	2.020064448196e+00	9.400000000000e-02
4.80000000e-02	2.017426174666e+00	9.600000000000e-02
4.90000000e-02	2.014878609355e+00	9.800000000000e-02
5.00000000e-02	2.012417909273e+00	1.000000000000e-01
5.10000000e-02	2.010040439834e+00	1.020000000000e-01
5.20000000e-02	2.007742760597e+00	1.040000000000e-01
5.30000000e-02	2.005521612193e+00	1.060000000000e-01
5.40000000e-02	2.003373904317e+00	1.080000000000e-01
5.50000000e-02	2.001296704685e+00	1.100000000000e-01
5.60000000e-02	1.999287228868e+00	1.120000000000e-01
5.70000000e-02	1.997342830916e+00	1.140000000000e-01
5.80000000e-02	1.995460994708e+00	1.160000000000e-01
5.90000000e-02	1.993639325953e+00	1.180000000000e-01
6.00000000e-02	1.991875544794e+00	1.200000000000e-01
6.10000000e-02	1.990167478950e+00	1.220000000000e-01
6.20000000e-02	1.988513057366e+00	1.240000000000e-01
6.30000000e-02	1.986910304314e+00	1.260000000000e-01
6.40000000e-02	1.985357333906e+00	1.280000000000e-01
6.50000000e-02	1.983852345002e+00	1.300000000000e-01
6.60000000e-02	1.982393616460e+00	1.320000000000e-01
6.70000000e-02	1.980979502714e+00	1.340000000000e-01
6.80000000e-02	1.979608429642e+00	1.360000000000e-01
6.90000000e-02	1.978278890721e+00	1.380000000000e-01
7.00000000e-02	1.976989443421e+00	1.400000000000e-01
7.10000000e-02	1.975738705841e+00	1.420000000000e-01
7.20000000e-02	1.974525353554e+00	1.440000000000e-01
7.30000000e-02	1.973348116658e+00	1.460000000000e-01
7.40000000e-02	1.972205777003e+00	1.480000000000e-01
7.50000000e-02	1.971097165597e+00	1.500000000000e-01
7.60000000e-02	1.970021160165e+00	1.520000000000e-01
7.70000000e-02	1.968976682857e+00	1.540000000000e-01
7.80000000e-02	1.967962698094e+00	1.560000000000e-01
7.90000000e-02	1.966978210534e+00	1.580000000000e-01
8.00000000e-02	1.966022263170e+00	1.600000000000e-01
8.10000000e-02	1.965093935522e+00	1.620000000000e-01
8.20000000e-02	1.964192341942e+00	1.640000000000e-01
8.30000000e-02	1.963316630015e+00	1.660000000000e-01
8.40000000e-02	1.962465979040e+00	1.680000000000e-01
8.50000000e-02	1.961639598606e+00	1.700000000000e-01
8.60000000e-02	1.960836727239e+00	1.720000000000e-01
8.70000000e-02	1.960056631123e+00	1.740000000000e-01
8.80000000e-02	1.959298602892e+00	1.760000000000e-01
8.90000000e-02	1.958561960482e+00	1.780000000000e-01
9.00000000e-02	1.957846046047e+00	1.800000000000e-01
9.10000000e-02	1.957150224929e+00	1.820000000000e-01
9.20000000e-02	1.956473884679e+00	1.840000000000e-01
9.30000000e-02	1.955816434135e+00	1.860000000000e-01
9.40000000e-02	1.955177302537e+00	1.880000000000e-01
9.50000000e-02	1.954555938694e+00	1.900000000000e-01
9.60000000e-02	1.953951810184e+00	1.920000000000e-01
9.70000000e-02	1.953364402605e+00	1.940000000000e-01
9.80000000e-02	1.952793218849e+00	1.960000000000e-01
9.90000000e-02	1.952237778419e+00	1.980000000000e-01
1.00000000e-01	1.951697616778e+00	2.000000000000e-01
1.01000000e-01	1.951172284725e+00	2.020000000000e-01
1.02000000e-01	1.950661347804e+00	2.040000000000e-01
1.03000000e-01	1.950164385738e+00	2.060000000000e-01
1.04000000e-01	1.949680991888e+00	2.080000000000e-01
1.05000000e-01	1.949210772742e+00	2.100000000000e-01
1.06000000e-01	1.948753347418e+00	2.120000000000e-01
1.07000000e-01	1.948308347198e+00	2.140000000000e-01
1.08000000e-01	1.947875415081e+00	2.160000000000e-01
1.09000000e-01	1.947454205346e+00	2.180000000000e-01
1.10000000e-01	1.947044383151e+00	2.200000000000e-01
1.11000000e-01	1.946645624131e+00	2.220000000000e-01
1.12000000e-01	1.946257614030e+00	2.240000000000e-01
1.13000000e-01	1.945880048335e+00	2.260000000000e-01
1.14000000e-01	1.945512631935e+00	2.280000000000e-01
1.15000000e-01	1.945155078788e+00	2.300000000000e-01
1.16000000e-01	1.944807111603e+00	2.320000000000e-01
1.17000000e-01	1.944468461542e+00	2.340000000000e-01
1.18000000e-01	1.944138867922e+00	2.360000000000e-01
1.19000000e-01	1.943818077937e+00	2.380000000000e-01
1.20000000e-01	1.943505846395e+00	2.400000000000e-01
1.21000000e-01	1.943201935451e+00	2.420000000000e-01
1.22000000e-01	1.942906114368e+00	2.440000000000e-01
1.23000000e-01	1.942618159272e+00	2.460000000000e-01
1.24000000e-01	1.942337852931e+00	2.480000000000e-01
1.25000000e-01	1.942064984528e+00	2.500000000000e-01
1.26000000e-01	1.941799349455e+00	2.520000000000e-01
1.27000000e-01	1.941540749106e+00	2.540000000000e-01
1.28000000e-01	1.941288990685e+00	2.560000000000e-01
1.29000000e-01	1.941043887015e+00	2.580000000000e-01
1.30000000e-01	1.940805256359e+00	2.600000000000e-01
1.31000000e-01	1.940572922242e+00	2.620000000000e-01
1.32000000e-01	1.940346713288e+00	2.640000000000e-01
1.33000000e-01	1.940126463055e+00	2.660000000000e-01
1.34000000e-01	1.939912009879e+00	2.680000000000e-01
1.35000000e-01	1.939703196725e+00	2.700000000000e-01
1.36000000e-01	1.939499871040e+00	2.720000000000e-01
1.37000000e-01	1.939301884617e+00	2.740000000000e-01
1.38000000e-01	1.939109093456e+00	2.760000000000e-01
1.39000000e-01	1.938921357635e+00	2.780000000000e-01
1.40000000e-01	1.938738541188e+00	2.800000000000e-01
1.41000000e-01	1.938560511977e+00	2.820000000000e-01
1.42000000e-01	1.938387141583e+00	2.840000000000e-01
1.43000000e-01	1.938218305187e+00	2.860000000000e-01
1.44000000e-01	1.938053881463e+00	2.880000000000e-01
1.45000000e-01	1.937893752473e+00	2.900000000000e-01
1.46000000e-01	1.937737803566e+00	2.920000000000e-01
1.47000000e-01	1.937585923276e+00	2.940000000000e-01
1.48000000e-01	1.937438003231e+00	2.960000000000e-01
1.49000000e-01	1.937293938059e+00	2.980000000000e-01
1.50000000e-01	1.937153625301e+00	3.000000000000e-01
1.51000000e-01	1.937016965322e+00	3.020000000000e-01
1.52000000e-01	1.936883861230e+00	3.040000000000e-01
1.53000000e-01	1.936754218794e+00	3.060000000000e-01
1.54000000e-01	1.936627946370e+00	3.080000000000e-01
1.55000000e-01	1.936504954819e+00	3.100000000000e-01
1.56000000e-01	1.936385157441e+00	3.120000000000e-01
1.57000000e-01	1.936268469902e+00	3.140000000000e-01
1.58000000e-01	1.936154810161e+00	3.160000000000e-01
1.59000000e-01	1.936044098413e+00	3.180000000000e-01
1.60000000e-01	1.935936257017e+00	3.200000000000e-01
1.61000000e-01	1.935831210437e+00	3.220000000000e-01
1.62000000e-01	1.935728885182e+00	3.240000000000e-01
1.63000000e-01	1.935629209749e+00	3.260000000000e-01
1.64000000e-01	1.935532114562e+00	3.280000000000e-01
1.65000000e-01	1.935437531924e+00	3.300000000000e-01
1.66000000e-01	1.935345395956e+00	3.320000000000e-01
1.67000000e-01	1.935255642555e+00	3.340000000000e-01
1.68000000e-01	1.935168209334e+00	3.360000000000e-01
1.69000000e-01	1.935083035583e+00	3.380000000000e-01
1.70000000e-01	1.935000062215e+00	3.400000000000e-01
1.71000000e-01	1.934919231726e+00	3.420000000000e-01
1.72000000e-01	1.934840488146e+00	3.440000000000e-01
1.73000000e-01	1.934763777000e+00	3.460000000000e-01
1.74000000e-01	1.934689045265e+00	3.480000000000e-01
1.75000000e-01	1.934616241330e+00	3.500000000000e-01
1.76000000e-01	1.934545314956e+00	3.520000000000e-01
1.77000000e-01	1.934476217242e+00	3.540000000000e-01
1.78000000e-01	1.934408900581e+00	3.560000000000e-01
1.79000000e-01	1.934343318631e+00	3.580000000000e-01
1.80000000e-01	1.934279426278e+00	3.600000000000e-01
1.81000000e-01	1.934217179602e+00	3.620000000000e-01
1.82000000e-01	1.934156535842e+00	3.640000000000e-01
1.83000000e-01	1.934097453371e+00	3.660000000000e-01
1.84000000e-01	1.934039891659e+00	3.680000000000e-01
1.85000000e-01	1.933983811243e+00	3.700000000000e-01
1.86000000e-01	1.933929173705e+00	3.720000000000e-01
1.87000000e-01	1.933875941633e+00	3.740000000000e-01
1.88000000e-01	1.933824078604e+00	3.760000000000e-01
1.89000000e-01	1.933773549150e+00	3.780000000000e-01
1.90000000e-01	1.933724318737e+00	3.800000000000e-01
1.91000000e-01	1.933676353736e+00	3.820000000000e-01
1.92000000e-01	1.933629621400e+00	3.840000000000e-01
1.93000000e-01	1.933584089843e+00	3.860000000000e-01
1.94000000e-01	1.933539728012e+00	3.880000000000e-01
1.95000000e-01	1.933496505668e+00	3.900000000000e-01
1.96000000e-01	1.933454393363e+00	3.920000000000e-01
1.97000000e-01	1.933413362420e+00	3.940000000000e-01
1.98000000e-01	1.933373384910e+00	3.960000000000e-01
1.99000000e-01	1.933334433635e+00	3.980000000000e-01
2.00000000e-01	1.933296482105e+00	4.000000000000e-01
2.01000000e-01	1.933259504524e+00	4.020000000000e-01
2.02000000e-01	1.933223475765e+00	4.040000000000e-01
2.03000000e-01	1.933188371358e+00	4.060000000000e-01
2.04000000e-01	1.933154167472e+00	4.080000000000e-01
2.05000000e-01	1.933120840892e+00	4.100000000000e-01
2.06000000e-01	1.933088369010e+00	4.120000000000e-01
2.07000000e-01	1.933056729807e+00	4.140000000000e-01
2.08000000e-01	1.933025901834e+00	4.160000000000e-01
2.09000000e-01	1.932995864200e+00	4.180000000000e-01
2.10000000e-01	1.932966596557e+00	4.200000000000e-01
2.11000000e-01	1.932938079084e+00	4.220000000000e-01
2.12000000e-01	1.932910292477e+00	4.240000000000e-01
2.13000000e-01	1.932883217931e+00	4.260000000000e-01
2.14000000e-01	1.932856837128e+00	4.280000000000e-01
2.15000000e-01	1.932831132225e+00	4.300000000000e-01
2.16000000e-01	1.932806085843e+00	4.320000000000e-01
2.17000000e-01	1.932781681050e+00	4.340000000000e-01
2.18000000e-01	1.932757901356e+00	4.360000000000e-01
2.19000000e-01	1.932734730695e+00	4.380000000000e-01
2.20000000e-01	1.932712153417e+00	4.400000000000e-01
2.21000000e-01	1.932690154278e+00	4.420000000000e-01
2.22000000e-01	1.932668718427e+00	4.440000000000e-01
2.23000000e-01	1.932647831398e+00	4.460000000000e-01
2.24000000e-01	1.932627479096e+00	4.480000000000e-01
2.25000000e-01	1.932607647793e+00	4.500000000000e-01
2.26000000e-01	1.932588324115e+00	4.520000000000e-01
2.27000000e-01	1.932569495031e+00	4.540000000000e-01
2.28000000e-01	1.932551147850e+00	4.560000000000e-01
2.29000000e-01	1.932533270204e+00	4.580000000000e-01
2.30000000e-01	1.932515850048e+00	4.600000000000e-01
2.31000000e-01	1.932498875645e+00	4.620000000000e-01
2.32000000e-01	1.932482335562e+00	4.640000000000e-01
2.33000000e-01	1.932466218659e+00	4.660000000000e-01
2.34000000e-01	1.932450514085e+00	4.680000000000e-01
2.35000000e-01	1.932435211268e+00	4.700000000000e-01
2.36000000e-01	1.932420299907e+00	4.720000000000e-01
2.37000000e-01	1.932405769967e+00	4.740000000000e-01
2.38000000e-01	1.932391611671e+00	4.760000000000e-01
2.39000000e-01	1.932377815496e+00	4.780000000000e-01
2.40000000e-01	1.932364372160e+00	4.800000000000e-01
2.41000000e-01	1.932351272623e+00	4.820000000000e-01
2.42000000e-01	1.932338508075e+00	4.840000000000e-01
2.43000000e-01	1.932326069935e+00	4.860000000000e-01
2.44000000e-01	1.932313949842e+00	4.880000000000e-01
2.45000000e-01	1.932302139648e+00	4.900000000000e-01
2.46000000e-01	1.932290631417e+00	4.920000000000e-01
2.47000000e-01	1.932279417416e+00	4.940000000000e-01
2.48000000e-01	1.932268490109e+00	4.960000000000e-01
2.49000000e-01	1.932257842156e+00	4.980000000000e-01
2.50000000e-01	1.932247466404e+00	5.000000000000e-01
2.51000000e-01	1.932237355886e+00	5.020000000000e-01
2.52000000e-01	1.932227503810e+00	5.040000000000e-01
2.53000000e-01	1.932217903561e+00	5.060000000000e-01
2.54000000e-01	1.932208548694e+00	5.080000000000e-01
2.55000000e-01	1.932199432928e+00	5.100000000000e-01
2.56000000e-01	1.932190550145e+00	5.120000000000e-01
2.57000000e-01	1.932181894382e+00	5.140000000000e-01
2.58000000e-01	1.932173459829e+00	5.160000000000e-01
2.59000000e-01	1.932165240828e+00	5.180000000000e-01
2.60000000e-01	1.932157231862e+00	5.200000000000e-01
2.61000000e-01	1.932149427558e+00	5.220000000000e-01
2.62000000e-01	1.932141822681e+00	5.240000000000e-01
2.63000000e-01	1.932134412129e+00	5.260000000000e-01
2.64000000e-01	1.932127190930e+00	5.280000000000e-01
2.65000000e-01	1.932120154243e+00	5.300000000000e-01
2.66000000e-01	1.932113297347e+00	5.320000000000e-01
2.67000000e-01	1.932106615644e+00	5.340000000000e-01
2.68000000e-01	1.932100104655e+00	5.360000000000e-01
2.69000000e-01	1.932093760012e+00	5.380000000000e-01
2.70000000e-01	1.932087577463e+00	5.400000000000e-01
2.71000000e-01	1.932081552863e+00	5.420000000000e-01
2.72000000e-01	1.932075682173e+00	5.440000000000e-01
2.73000000e-01	1.932069961457e+00	5.460000000000e-01
2.74000000e-01	1.932064386882e+00	5.480000000000e-01
2.75000000e-01	1.932058954710e+00	5.500000000000e-01
2.76000000e-01	1.932053661303e+00	5.520000000000e-01
2.77000000e-01	1.932048503111e+00	5.540000000000e-01
2.78000000e-01	1.932043476679e+00	5.560000000000e-01
2.79000000e-01	1.932038578639e+00	5.580000000000e-01
2.80000000e-01	1.932033805708e+00	5.600000000000e-01
2.81000000e-01	1.932029154689e+00	5.620000000000e-01
2.82000000e-01	1.932024622467e+00	5.640000000000e-01
2.83000000e-01	1.932020206004e+00	5.660000000000e-01
2.84000000e-01	1.932015902342e+00	5.680000000000e-01
2.85000000e-01	1.932011708598e+00	5.700000000000e-01
2.86000000e-01	1.932007621964e+00	5.720000000000e-01
2.87000000e-01	1.932003639702e+00	5.740000000000e-01
2.88000000e-01	1.931999759145e+00	5.760000000000e-01
2.89000000e-01	1.931995977693e+00	5.780000000000e-01
2.90000000e-01	1.931992292816e+00	5.800000000000e-01
2.91000000e-01	1.931988702044e+00	5.820000000000e-01
2.92000000e-01	1.931985202973e+00	5.840000000000e-01
2.93000000e-01	1.931981793261e+00	5.860000000000e-01
2.94000000e-01	1.931978470624e+00	5.880000000000e-01
2.95000000e-01	1.931975232838e+00	5.900000000000e-01
2.96000000e-01	1.931972077734e+00	5.920000000000e-01
2.97000000e-01	1.931969003200e+00	5.940000000000e-01
2.98000000e-01	1.931966007179e+00	5.960000000000e-01
2.99000000e-01	1.931963087663e+00	5.980000000000e-01
3.00000000e-01	1.931960242699e+00	6.000000000000e-01
3.01000000e-01	1.931957470382e+00	6.020000000000e-01
3.02000000e-01	1.931954768856e+00	6.040000000000e-01
3.03000000e-01	1.931952136314e+00	6.060000000000e-01
3.04000000e-01	1.931949570992e+00	6.080000000000e-01
3.05000000e-01	1.931947071174e+00	6.100000000000e-01
3.06000000e-01	1.931944635187e+00	6.120000000000e-01
3.07000000e-01	1.931942261400e+00	6.140000000000e-01
3.08000000e-01	1.931939948224e+00	6.160000000000e-01
3.09000000e-01	1.931937694111e+00	6.180000000000e-01
3.10000000e-01	1.931935497553e+00	6.200000000000e-01
3.11000000e-01	1.931933357080e+00	6.220000000000e-01
3.12000000e-01	1.931931271259e+00	6.240000000000e-01
3.13000000e-01	1.931929238695e+00	6.260000000000e-01
3.14000000e-01	1.931927258027e+00	6.280000000000e-01
3.15000000e-01	1.931925327929e+00	6.300000000000e-01
3.16000000e-01	1.931923447111e+00	6.320000000000e-01
3.17000000e-01	1.931921614314e+00	6.340000000000e-01
3.18000000e-01	1.931919828310e+00	6.360000000000e-01
3.19000000e-01	1.931918087907e+00	6.380000000000e-01
3.20000000e-01	1.931916391938e+00	6.400000000000e-01
3.21000000e-01	1.931914739269e+00	6.420000000000e-01
3.22000000e-01	1.931913128794e+00	6.440000000000e-01
3.23000000e-01	1.931911559437e+00	6.460000000000e-01
3.24000000e-01	1.931910030146e+00	6.480000000000e-01
3.25000000e-01	1.931908539898e+00	6.500000000000e-01
3.26000000e-01	1.931907087698e+00	6.520000000000e-01
3.27000000e-01	1.931905672572e+00	6.540000000000e-01
3.28000000e-01	1.931904293575e+00	6.560000000000e-01
3.29000000e-01	1.931902949783e+00	6.580000000000e-01
3.30000000e-01	1.931901640299e+00	6.600000000000e-01
3.31000000e-01	1.931900364245e+00	6.620000000000e-01
3.32000000e-01	1.931899120768e+00	6.640000000000e-01
3.33000000e-01	1.931897909037e+00	6.660000000000e-01
3.34000000e-01	1.931896728241e+00	6.680000000000e-01
3.35000000e-01	1.931895577589e+00	6.700000000000e-01
3.36000000e-01	1.931894456313e+00	6.720000000000e-01
3.37000000e-01	1.931893363662e+00	6.740000000000e-01
3.38000000e-01	1.931892298905e+00	6.760000000000e-01
3.39000000e-01	1.931891261330e+00	6.780000000000e-01
3.40000000e-01	1.931890250243e+00	6.800000000000e-01
3.41000000e-01	1.931889264968e+00	6.820000000000e-01
3.42000000e-01	1.931888304845e+00	6.840000000000e-01
3.43000000e-01	1.931887369233e+00	6.860000000000e-01
3.44000000e-01	1.931886457506e+00	6.880000000000e-01
3.45000000e-01	1.931885569053e+00	6.900000000000e-01
3.46000000e-01	1.931884703281e+00	6.920000000000e-01
3.47000000e-01	1.931883859611e+00	6.940000000000e-01
3.48000000e-01	1.931883037478e+00	6.960000000000e-01
3.49000000e-01	1.931882236332e+00	6.980000000000e-01
3.50000000e-01	1.931881455638e+00	7.000000000000e-01
3.51000000e-01	1.931880694874e+00	7.020000000000e-01
3.52000000e-01	1.931879953529e+00	7.040000000000e-01
3.53000000e-01	1.931879231110e+00	7.060000000000e-01
3.54000000e-01	1.931878527133e+00	7.080000000000e-01
3.55000000e-01	1.931877841126e+00	7.100000000000e-01
3.56000000e-01	1.931877172631e+00	7.120000000000e-01
3.57000000e-01	1.931876521201e+00	7.140000000000e-01
3.58000000e-01	1.931875886401e+00	7.160000000000e-01
3.59000000e-01	1.931875267805e+00	7.180000000000e-01
3.60000000e-01	1.931874665000e+00	7.200000000000e-01
3.61000000e-01	1.931874077583e+00	7.220000000000e-01
3.62000000e-01	1.931873505162e+00	7.240000000000e-01
3.63000000e-01	1.931872947352e+00	7.260000000000e-01
3.64000000e-01	1.931872403782e+00	7.280000000000e-01
3.65000000e-01	1.931871874087e+00	7.300000000000e-01
3.66000000e-01	1.931871357914e+00	7.320000000000e-01
3.67000000e-01	1.931870854917e+00	7.340000000000e-01
3.68000000e-01	1.931870364761e+00	7.360000000000e-01
3.69000000e-01	1.931869887116e+00	7.380000000000e-01
3.70000000e-01	1.931869421664e+00	7.400000000000e-01
3.71000000e-01	1.931868968093e+00	7.420000000000e-01
3.72000000e-01	1.931868526101e+00	7.440000000000e-01
3.73000000e-01	1.931868095391e+00	7.460000000000e-01
3.74000000e-01	1.931867675675e+00	7.480000000000e-01
